position,id_lab,id,ot_lab,tax_name,functional_group,,400,400.5,401,401.5,402,402.5,403,403.5,404,404.5,405,405.5,406,406.5,407,407.5,408,408.5,409,409.5,410,410.5,411,411.5,412,412.5,413,413.5,414,414.5,415,415.5,416,416.5,417,417.5,418,418.5,419,419.5,420,420.5,421,421.5,422,422.5,423,423.5,424,424.5,425,425.5,426,426.5,427,427.5,428,428.5,429,429.5,430,430.5,431,431.5,432,432.5,433,433.5,434,434.5,435,435.5,436,436.5,437,437.5,438,438.5,439,439.5,440,440.5,441,441.5,442,442.5,443,443.5,444,444.5,445,445.5,446,446.5,447,447.5,448,448.5,449,449.5,450,450.5,451,451.5,452,452.5,453,453.5,454,454.5,455,455.5,456,456.5,457,457.5,458,458.5,459,459.5,460,460.5,461,461.5,462,462.5,463,463.5,464,464.5,465,465.5,466,466.5,467,467.5,468,468.5,469,469.5,470,470.5,471,471.5,472,472.5,473,473.5,474,474.5,475,475.5,476,476.5,477,477.5,478,478.5,479,479.5,480,480.5,481,481.5,482,482.5,483,483.5,484,484.5,485,485.5,486,486.5,487,487.5,488,488.5,489,489.5,490,490.5,491,491.5,492,492.5,493,493.5,494,494.5,495,495.5,496,496.5,497,497.5,498,498.5,499,499.5,500,500.5,501,501.5,502,502.5,503,503.5,504,504.5,505,505.5,506,506.5,507,507.5,508,508.5,509,509.5,510,510.5,511,511.5,512,512.5,513,513.5,514,514.5,515,515.5,516,516.5,517,517.5,518,518.5,519,519.5,520,520.5,521,521.5,522,522.5,523,523.5,524,524.5,525,525.5,526,526.5,527,527.5,528,528.5,529,529.5,530,530.5,531,531.5,532,532.5,533,533.5,534,534.5,535,535.5,536,536.5,537,537.5,538,538.5,539,539.5,540,540.5,541,541.5,542,542.5,543,543.5,544,544.5,545,545.5,546,546.5,547,547.5,548,548.5,549,549.5,550,550.5,551,551.5,552,552.5,553,553.5,554,554.5,555,555.5,556,556.5,557,557.5,558,558.5,559,559.5,560,560.5,561,561.5,562,562.5,563,563.5,564,564.5,565,565.5,566,566.5,567,567.5,568,568.5,569,569.5,570,570.5,571,571.5,572,572.5,573,573.5,574,574.5,575,575.5,576,576.5,577,577.5,578,578.5,579,579.5,580,580.5,581,581.5,582,582.5,583,583.5,584,584.5,585,585.5,586,586.5,587,587.5,588,588.5,589,589.5,590,590.5,591,591.5,592,592.5,593,593.5,594,594.5,595,595.5,596,596.5,597,597.5,598,598.5,599,599.5,600,600.5,601,601.5,602,602.5,603,603.5,604,604.5,605,605.5,606,606.5,607,607.5,608,608.5,609,609.5,610,610.5,611,611.5,612,612.5,613,613.5,614,614.5,615,615.5,616,616.5,617,617.5,618,618.5,619,619.5,620,620.5,621,621.5,622,622.5,623,623.5,624,624.5,625,625.5,626,626.5,627,627.5,628,628.5,629,629.5,630,630.5,631,631.5,632,632.5,633,633.5,634,634.5,635,635.5,636,636.5,637,637.5,638,638.5,639,639.5,640,640.5,641,641.5,642,642.5,643,643.5,644,644.5,645,645.5,646,646.5,647,647.5,648,648.5,649,649.5,650,650.5,651,651.5,652,652.5,653,653.5,654,654.5,655,655.5,656,656.5,657,657.5,658,658.5,659,659.5,660,660.5,661,661.5,662,662.5,663,663.5,664,664.5,665,665.5,666,666.5,667,667.5,668,668.5,669,669.5,670,670.5,671,671.5,672,672.5,673,673.5,674,674.5,675,675.5,676,676.5,677,677.5,678,678.5,679,679.5,680,680.5,681,681.5,682,682.5,683,683.5,684,684.5,685,685.5,686,686.5,687,687.5,688,688.5,689,689.5,690,690.5,691,691.5,692,692.5,693,693.5,694,694.5,695,695.5,696,696.5,697,697.5,698,698.5,699,699.5,700,700.5,701,701.5,702,702.5,703,703.5,704,704.5,705,705.5,706,706.5,707,707.5,708,708.5,709,709.5,710,710.5,711,711.5,712,712.5,713,713.5,714,714.5,715,715.5,716,716.5,717,717.5,718,718.5,719,719.5,720,720.5,721,721.5,722,722.5,723,723.5,724,724.5,725,725.5,726,726.5,727,727.5,728,728.5,729,729.5,730,730.5,731,731.5,732,732.5,733,733.5,734,734.5,735,735.5,736,736.5,737,737.5,738,738.5,739,739.5,740,740.5,741,741.5,742,742.5,743,743.5,744,744.5,745,745.5,746,746.5,747,747.5,748,748.5,749,749.5,750,750.5,751,751.5,752,752.5,753,753.5,754,754.5,755,755.5,756,756.5,757,757.5,758,758.5,759,759.5,760,760.5,761,761.5,762,762.5,763,763.5,764,764.5,765,765.5,766,766.5,767,767.5,768,768.5,769,769.5,770,770.5,771,771.5,772,772.5,773,773.5,774,774.5,775,775.5,776,776.5,777,777.5,778,778.5,779,779.5,780,780.5,781,781.5,782,782.5,783,783.5,784,784.5,785,785.5,786,786.5,787,787.5,788,788.5,789,789.5,790,790.5,791,791.5,792,792.5,793,793.5,794,794.5,795,795.5,796,796.5,797,797.5,798,798.5,799,799.5,800,800.5,801,801.5,802,802.5,803,803.5,804,804.5,805,805.5,806,806.5,807,807.5,808,808.5,809,809.5,810,810.5,811,811.5,812,812.5,813,813.5,814,814.5,815,815.5,816,816.5,817,817.5,818,818.5,819,819.5,820,820.5,821,821.5,822,822.5,823,823.5,824,824.5,825,825.5,826,826.5,827,827.5,828,828.5,829,829.5,830,830.5,831,831.5,832,832.5,833,833.5,834,834.5,835,835.5,836,836.5,837,837.5,838,838.5,839,839.5,840,840.5,841,841.5,842,842.5,843,843.5,844,844.5,845,845.5,846,846.5,847,847.5,848,848.5,849,849.5,850,850.5,851,851.5,852,852.5,853,853.5,854,854.5,855,855.5,856,856.5,857,857.5,858,858.5,859,859.5,860,860.5,861,861.5,862,862.5,863,863.5,864,864.5,865,865.5,866,866.5,867,867.5,868,868.5,869,869.5,870,870.5,871,871.5,872,872.5,873,873.5,874,874.5,875,875.5,876,876.5,877,877.5,878,878.5,879,879.5,880,880.5,881,881.5,882,882.5,883,883.5,884,884.5,885,885.5,886,886.5,887,887.5,888,888.5,889,889.5,890,890.5,891,891.5,892,892.5,893,893.5,894,894.5,895,895.5,896,896.5,897,897.5,898,898.5,899,899.5,900,900.5,901,901.5,902,902.5,903,903.5,904,904.5,905,905.5,906,906.5,907,907.5,908,908.5,909,909.5,910,910.5,911,911.5,912,912.5,913,913.5,914,914.5,915,915.5,916,916.5,917,917.5,918,918.5,919,919.5,920,920.5,921,921.5,922,922.5,923,923.5,924,924.5,925,925.5,926,926.5,927,927.5,928,928.5,929,929.5,930,930.5,931,931.5,932,932.5,933,933.5,934,934.5,935,935.5,936,936.5,937,937.5,938,938.5,939,939.5,940,940.5,941,941.5,942,942.5,943,943.5,944,944.5,945,945.5,946,946.5,947,947.5,948,948.5,949,949.5,950,950.5,951,951.5,952,952.5,953,953.5,954,954.5,955,955.5,956,956.5,957,957.5,958,958.5,959,959.5,960,960.5,961,961.5,962,962.5,963,963.5,964,964.5,965,965.5,966,966.5,967,967.5,968,968.5,969,969.5,970,970.5,971,971.5,972,972.5,973,973.5,974,974.5,975,975.5,976,976.5,977,977.5,978,978.5,979,979.5,980,980.5,981,981.5,982,982.5,983,983.5,984,984.5,985,985.5,986,986.5,987,987.5,988,988.5,989,989.5,990,990.5,991,991.5,992,992.5,993,993.5,994,994.5,995,995.5,996,996.5,997,997.5,998,998.5,999,999.5,1000,1000.5,1001,1001.5,1002,1002.5,1003,1003.5,1004,1004.5,1005,1005.5,1006,1006.5,1007,1007.5,1008,1008.5,1009,1009.5,1010,1010.5,1011,1011.5,1012,1012.5,1013,1013.5,1014,1014.5,1015,1015.5,1016,1016.5,1017,1017.5,1018,1018.5,1019,1019.5,1020,1020.5,1021,1021.5,1022,1022.5,1023,1023.5,1024,1024.5,1025,1025.5,1026,1026.5,1027,1027.5,1028,1028.5,1029,1029.5,1030,1030.5,1031,1031.5,1032,1032.5,1033,1033.5,1034,1034.5,1035,1035.5,1036,1036.5,1037,1037.5,1038,1038.5,1039,1039.5,1040,1040.5,1041,1041.5,1042,1042.5,1043,1043.5,1044,1044.5,1045,1045.5,1046,1046.5,1047,1047.5,1048,1048.5,1049,1049.5,1050,1050.5,1051,1051.5,1052,1052.5,1053,1053.5,1054,1054.5,1055,1055.5,1056,1056.5,1057,1057.5,1058,1058.5,1059,1059.5,1060,1060.5,1061,1061.5,1062,1062.5,1063,1063.5,1064,1064.5,1065,1065.5,1066,1066.5,1067,1067.5,1068,1068.5,1069,1069.5,1070,1070.5,1071,1071.5,1072,1072.5,1073,1073.5,1074,1074.5,1075,1075.5,1076,1076.5,1077,1077.5,1078,1078.5,1079,1079.5,1080,1080.5,1081,1081.5,1082,1082.5,1083,1083.5,1084,1084.5,1085,1085.5,1086,1086.5,1087,1087.5,1088,1088.5,1089,1089.5,1090,1090.5,1091,1091.5,1092,1092.5,1093,1093.5,1094,1094.5,1095,1095.5,1096,1096.5,1097,1097.5,1098,1098.5,1099,1099.5,1100,1100.5,1101,1101.5,1102,1102.5,1103,1103.5,1104,1104.5,1105,1105.5,1106,1106.5,1107,1107.5,1108,1108.5,1109,1109.5,1110,1110.5,1111,1111.5,1112,1112.5,1113,1113.5,1114,1114.5,1115,1115.5,1116,1116.5,1117,1117.5,1118,1118.5,1119,1119.5,1120,1120.5,1121,1121.5,1122,1122.5,1123,1123.5,1124,1124.5,1125,1125.5,1126,1126.5,1127,1127.5,1128,1128.5,1129,1129.5,1130,1130.5,1131,1131.5,1132,1132.5,1133,1133.5,1134,1134.5,1135,1135.5,1136,1136.5,1137,1137.5,1138,1138.5,1139,1139.5,1140,1140.5,1141,1141.5,1142,1142.5,1143,1143.5,1144,1144.5,1145,1145.5,1146,1146.5,1147,1147.5,1148,1148.5,1149,1149.5,1150,1150.5,1151,1151.5,1152,1152.5,1153,1153.5,1154,1154.5,1155,1155.5,1156,1156.5,1157,1157.5,1158,1158.5,1159,1159.5,1160,1160.5,1161,1161.5,1162,1162.5,1163,1163.5,1164,1164.5,1165,1165.5,1166,1166.5,1167,1167.5,1168,1168.5,1169,1169.5,1170,1170.5,1171,1171.5,1172,1172.5,1173,1173.5,1174,1174.5,1175,1175.5,1176,1176.5,1177,1177.5,1178,1178.5,1179,1179.5,1180,1180.5,1181,1181.5,1182,1182.5,1183,1183.5,1184,1184.5,1185,1185.5,1186,1186.5,1187,1187.5,1188,1188.5,1189,1189.5,1190,1190.5,1191,1191.5,1192,1192.5,1193,1193.5,1194,1194.5,1195,1195.5,1196,1196.5,1197,1197.5,1198,1198.5,1199,1199.5,1200,1200.5,1201,1201.5,1202,1202.5,1203,1203.5,1204,1204.5,1205,1205.5,1206,1206.5,1207,1207.5,1208,1208.5,1209,1209.5,1210,1210.5,1211,1211.5,1212,1212.5,1213,1213.5,1214,1214.5,1215,1215.5,1216,1216.5,1217,1217.5,1218,1218.5,1219,1219.5,1220,1220.5,1221,1221.5,1222,1222.5,1223,1223.5,1224,1224.5,1225,1225.5,1226,1226.5,1227,1227.5,1228,1228.5,1229,1229.5,1230,1230.5,1231,1231.5,1232,1232.5,1233,1233.5,1234,1234.5,1235,1235.5,1236,1236.5,1237,1237.5,1238,1238.5,1239,1239.5,1240,1240.5,1241,1241.5,1242,1242.5,1243,1243.5,1244,1244.5,1245,1245.5,1246,1246.5,1247,1247.5,1248,1248.5,1249,1249.5,1250,1250.5,1251,1251.5,1252,1252.5,1253,1253.5,1254,1254.5,1255,1255.5,1256,1256.5,1257,1257.5,1258,1258.5,1259,1259.5,1260,1260.5,1261,1261.5,1262,1262.5,1263,1263.5,1264,1264.5,1265,1265.5,1266,1266.5,1267,1267.5,1268,1268.5,1269,1269.5,1270,1270.5,1271,1271.5,1272,1272.5,1273,1273.5,1274,1274.5,1275,1275.5,1276,1276.5,1277,1277.5,1278,1278.5,1279,1279.5,1280,1280.5,1281,1281.5,1282,1282.5,1283,1283.5,1284,1284.5,1285,1285.5,1286,1286.5,1287,1287.5,1288,1288.5,1289,1289.5,1290,1290.5,1291,1291.5,1292,1292.5,1293,1293.5,1294,1294.5,1295,1295.5,1296,1296.5,1297,1297.5,1298,1298.5,1299,1299.5,1300,1300.5,1301,1301.5,1302,1302.5,1303,1303.5,1304,1304.5,1305,1305.5,1306,1306.5,1307,1307.5,1308,1308.5,1309,1309.5,1310,1310.5,1311,1311.5,1312,1312.5,1313,1313.5,1314,1314.5,1315,1315.5,1316,1316.5,1317,1317.5,1318,1318.5,1319,1319.5,1320,1320.5,1321,1321.5,1322,1322.5,1323,1323.5,1324,1324.5,1325,1325.5,1326,1326.5,1327,1327.5,1328,1328.5,1329,1329.5,1330,1330.5,1331,1331.5,1332,1332.5,1333,1333.5,1334,1334.5,1335,1335.5,1336,1336.5,1337,1337.5,1338,1338.5,1339,1339.5,1340,1340.5,1341,1341.5,1342,1342.5,1343,1343.5,1344,1344.5,1345,1345.5,1346,1346.5,1347,1347.5,1348,1348.5,1349,1349.5,1350,1350.5,1351,1351.5,1352,1352.5,1353,1353.5,1354,1354.5,1355,1355.5,1356,1356.5,1357,1357.5,1358,1358.5,1359,1359.5,1360,1360.5,1361,1361.5,1362,1362.5,1363,1363.5,1364,1364.5,1365,1365.5,1366,1366.5,1367,1367.5,1368,1368.5,1369,1369.5,1370,1370.5,1371,1371.5,1372,1372.5,1373,1373.5,1374,1374.5,1375,1375.5,1376,1376.5,1377,1377.5,1378,1378.5,1379,1379.5,1380,1380.5,1381,1381.5,1382,1382.5,1383,1383.5,1384,1384.5,1385,1385.5,1386,1386.5,1387,1387.5,1388,1388.5,1389,1389.5,1390,1390.5,1391,1391.5,1392,1392.5,1393,1393.5,1394,1394.5,1395,1395.5,1396,1396.5,1397,1397.5,1398,1398.5,1399,1399.5,1400,1400.5,1401,1401.5,1402,1402.5,1403,1403.5,1404,1404.5,1405,1405.5,1406,1406.5,1407,1407.5,1408,1408.5,1409,1409.5,1410,1410.5,1411,1411.5,1412,1412.5,1413,1413.5,1414,1414.5,1415,1415.5,1416,1416.5,1417,1417.5,1418,1418.5,1419,1419.5,1420,1420.5,1421,1421.5,1422,1422.5,1423,1423.5,1424,1424.5,1425,1425.5,1426,1426.5,1427,1427.5,1428,1428.5,1429,1429.5,1430,1430.5,1431,1431.5,1432,1432.5,1433,1433.5,1434,1434.5,1435,1435.5,1436,1436.5,1437,1437.5,1438,1438.5,1439,1439.5,1440,1440.5,1441,1441.5,1442,1442.5,1443,1443.5,1444,1444.5,1445,1445.5,1446,1446.5,1447,1447.5,1448,1448.5,1449,1449.5,1450,1450.5,1451,1451.5,1452,1452.5,1453,1453.5,1454,1454.5,1455,1455.5,1456,1456.5,1457,1457.5,1458,1458.5,1459,1459.5,1460,1460.5,1461,1461.5,1462,1462.5,1463,1463.5,1464,1464.5,1465,1465.5,1466,1466.5,1467,1467.5,1468,1468.5,1469,1469.5,1470,1470.5,1471,1471.5,1472,1472.5,1473,1473.5,1474,1474.5,1475,1475.5,1476,1476.5,1477,1477.5,1478,1478.5,1479,1479.5,1480,1480.5,1481,1481.5,1482,1482.5,1483,1483.5,1484,1484.5,1485,1485.5,1486,1486.5,1487,1487.5,1488,1488.5,1489,1489.5,1490,1490.5,1491,1491.5,1492,1492.5,1493,1493.5,1494,1494.5,1495,1495.5,1496,1496.5,1497,1497.5,1498,1498.5,1499,1499.5,1500,1500.5,1501,1501.5,1502,1502.5,1503,1503.5,1504,1504.5,1505,1505.5,1506,1506.5,1507,1507.5,1508,1508.5,1509,1509.5,1510,1510.5,1511,1511.5,1512,1512.5,1513,1513.5,1514,1514.5,1515,1515.5,1516,1516.5,1517,1517.5,1518,1518.5,1519,1519.5,1520,1520.5,1521,1521.5,1522,1522.5,1523,1523.5,1524,1524.5,1525,1525.5,1526,1526.5,1527,1527.5,1528,1528.5,1529,1529.5,1530,1530.5,1531,1531.5,1532,1532.5,1533,1533.5,1534,1534.5,1535,1535.5,1536,1536.5,1537,1537.5,1538,1538.5,1539,1539.5,1540,1540.5,1541,1541.5,1542,1542.5,1543,1543.5,1544,1544.5,1545,1545.5,1546,1546.5,1547,1547.5,1548,1548.5,1549,1549.5,1550,1550.5,1551,1551.5,1552,1552.5,1553,1553.5,1554,1554.5,1555,1555.5,1556,1556.5,1557,1557.5,1558,1558.5,1559,1559.5,1560,1560.5,1561,1561.5,1562,1562.5,1563,1563.5,1564,1564.5,1565,1565.5,1566,1566.5,1567,1567.5,1568,1568.5,1569,1569.5,1570,1570.5,1571,1571.5,1572,1572.5,1573,1573.5,1574,1574.5,1575,1575.5,1576,1576.5,1577,1577.5,1578,1578.5,1579,1579.5,1580,1580.5,1581,1581.5,1582,1582.5,1583,1583.5,1584,1584.5,1585,1585.5,1586,1586.5,1587,1587.5,1588,1588.5,1589,1589.5,1590,1590.5,1591,1591.5,1592,1592.5,1593,1593.5,1594,1594.5,1595,1595.5,1596,1596.5,1597,1597.5,1598,1598.5,1599,1599.5,1600,1600.5,1601,1601.5,1602,1602.5,1603,1603.5,1604,1604.5,1605,1605.5,1606,1606.5,1607,1607.5,1608,1608.5,1609,1609.5,1610,1610.5,1611,1611.5,1612,1612.5,1613,1613.5,1614,1614.5,1615,1615.5,1616,1616.5,1617,1617.5,1618,1618.5,1619,1619.5,1620,1620.5,1621,1621.5,1622,1622.5,1623,1623.5,1624,1624.5,1625,1625.5,1626,1626.5,1627,1627.5,1628,1628.5,1629,1629.5,1630,1630.5,1631,1631.5,1632,1632.5,1633,1633.5,1634,1634.5,1635,1635.5,1636,1636.5,1637,1637.5,1638,1638.5,1639,1639.5,1640,1640.5,1641,1641.5,1642,1642.5,1643,1643.5,1644,1644.5,1645,1645.5,1646,1646.5,1647,1647.5,1648,1648.5,1649,1649.5,1650,1650.5,1651,1651.5,1652,1652.5,1653,1653.5,1654,1654.5,1655,1655.5,1656,1656.5,1657,1657.5,1658,1658.5,1659,1659.5,1660,1660.5,1661,1661.5,1662,1662.5,1663,1663.5,1664,1664.5,1665,1665.5,1666,1666.5,1667,1667.5,1668,1668.5,1669,1669.5,1670,1670.5,1671,1671.5,1672,1672.5,1673,1673.5,1674,1674.5,1675,1675.5,1676,1676.5,1677,1677.5,1678,1678.5,1679,1679.5,1680,1680.5,1681,1681.5,1682,1682.5,1683,1683.5,1684,1684.5,1685,1685.5,1686,1686.5,1687,1687.5,1688,1688.5,1689,1689.5,1690,1690.5,1691,1691.5,1692,1692.5,1693,1693.5,1694,1694.5,1695,1695.5,1696,1696.5,1697,1697.5,1698,1698.5,1699,1699.5,1700,1700.5,1701,1701.5,1702,1702.5,1703,1703.5,1704,1704.5,1705,1705.5,1706,1706.5,1707,1707.5,1708,1708.5,1709,1709.5,1710,1710.5,1711,1711.5,1712,1712.5,1713,1713.5,1714,1714.5,1715,1715.5,1716,1716.5,1717,1717.5,1718,1718.5,1719,1719.5,1720,1720.5,1721,1721.5,1722,1722.5,1723,1723.5,1724,1724.5,1725,1725.5,1726,1726.5,1727,1727.5,1728,1728.5,1729,1729.5,1730,1730.5,1731,1731.5,1732,1732.5,1733,1733.5,1734,1734.5,1735,1735.5,1736,1736.5,1737,1737.5,1738,1738.5,1739,1739.5,1740,1740.5,1741,1741.5,1742,1742.5,1743,1743.5,1744,1744.5,1745,1745.5,1746,1746.5,1747,1747.5,1748,1748.5,1749,1749.5,1750,1750.5,1751,1751.5,1752,1752.5,1753,1753.5,1754,1754.5,1755,1755.5,1756,1756.5,1757,1757.5,1758,1758.5,1759,1759.5,1760,1760.5,1761,1761.5,1762,1762.5,1763,1763.5,1764,1764.5,1765,1765.5,1766,1766.5,1767,1767.5,1768,1768.5,1769,1769.5,1770,1770.5,1771,1771.5,1772,1772.5,1773,1773.5,1774,1774.5,1775,1775.5,1776,1776.5,1777,1777.5,1778,1778.5,1779,1779.5,1780,1780.5,1781,1781.5,1782,1782.5,1783,1783.5,1784,1784.5,1785,1785.5,1786,1786.5,1787,1787.5,1788,1788.5,1789,1789.5,1790,1790.5,1791,1791.5,1792,1792.5,1793,1793.5,1794,1794.5,1795,1795.5,1796,1796.5,1797,1797.5,1798,1798.5,1799,1799.5,1800,1800.5,1801,1801.5,1802,1802.5,1803,1803.5,1804,1804.5,1805,1805.5,1806,1806.5,1807,1807.5,1808,1808.5,1809,1809.5,1810,1810.5,1811,1811.5,1812,1812.5,1813,1813.5,1814,1814.5,1815,1815.5,1816,1816.5,1817,1817.5,1818,1818.5,1819,1819.5,1820,1820.5,1821,1821.5,1822,1822.5,1823,1823.5,1824,1824.5,1825,1825.5,1826,1826.5,1827,1827.5,1828,1828.5,1829,1829.5,1830,1830.5,1831,1831.5,1832,1832.5,1833,1833.5,1834,1834.5,1835,1835.5,1836,1836.5,1837,1837.5,1838,1838.5,1839,1839.5,1840,1840.5,1841,1841.5,1842,1842.5,1843,1843.5,1844,1844.5,1845,1845.5,1846,1846.5,1847,1847.5,1848,1848.5,1849,1849.5,1850,1850.5,1851,1851.5,1852,1852.5,1853,1853.5,1854,1854.5,1855,1855.5,1856,1856.5,1857,1857.5,1858,1858.5,1859,1859.5,1860,1860.5,1861,1861.5,1862,1862.5,1863,1863.5,1864,1864.5,1865,1865.5,1866,1866.5,1867,1867.5,1868,1868.5,1869,1869.5,1870,1870.5,1871,1871.5,1872,1872.5,1873,1873.5,1874,1874.5,1875,1875.5,1876,1876.5,1877,1877.5,1878,1878.5,1879,1879.5,1880,1880.5,1881,1881.5,1882,1882.5,1883,1883.5,1884,1884.5,1885,1885.5,1886,1886.5,1887,1887.5,1888,1888.5,1889,1889.5,1890,1890.5,1891,1891.5,1892,1892.5,1893,1893.5,1894,1894.5,1895,1895.5,1896,1896.5,1897,1897.5,1898,1898.5,1899,1899.5,1900,1900.5,1901,1901.5,1902,1902.5,1903,1903.5,1904,1904.5,1905,1905.5,1906,1906.5,1907,1907.5,1908,1908.5,1909,1909.5,1910,1910.5,1911,1911.5,1912,1912.5,1913,1913.5,1914,1914.5,1915,1915.5,1916,1916.5,1917,1917.5,1918,1918.5,1919,1919.5,1920,1920.5,1921,1921.5,1922,1922.5,1923,1923.5,1924,1924.5,1925,1925.5,1926,1926.5,1927,1927.5,1928,1928.5,1929,1929.5,1930,1930.5,1931,1931.5,1932,1932.5,1933,1933.5,1934,1934.5,1935,1935.5,1936,1936.5,1937,1937.5,1938,1938.5,1939,1939.5,1940,1940.5,1941,1941.5,1942,1942.5,1943,1943.5,1944,1944.5,1945,1945.5,1946,1946.5,1947,1947.5,1948,1948.5,1949,1949.5,1950,1950.5,1951,1951.5,1952,1952.5,1953,1953.5,1954,1954.5,1955,1955.5,1956,1956.5,1957,1957.5,1958,1958.5,1959,1959.5,1960,1960.5,1961,1961.5,1962,1962.5,1963,1963.5,1964,1964.5,1965,1965.5,1966,1966.5,1967,1967.5,1968,1968.5,1969,1969.5,1970,1970.5,1971,1971.5,1972,1972.5,1973,1973.5,1974,1974.5,1975,1975.5,1976,1976.5,1977,1977.5,1978,1978.5,1979,1979.5,1980,1980.5,1981,1981.5,1982,1982.5,1983,1983.5,1984,1984.5,1985,1985.5,1986,1986.5,1987,1987.5,1988,1988.5,1989,1989.5,1990,1990.5,1991,1991.5,1992,1992.5,1993,1993.5,1994,1994.5,1995,1995.5,1996,1996.5,1997,1997.5,1998,1998.5,1999,1999.5,2000,2000.5,2001,2001.5,2002,2002.5,2003,2003.5,2004,2004.5,2005,2005.5,2006,2006.5,2007,2007.5,2008,2008.5,2009,2009.5,2010,2010.5,2011,2011.5,2012,2012.5,2013,2013.5,2014,2014.5,2015,2015.5,2016,2016.5,2017,2017.5,2018,2018.5,2019,2019.5,2020,2020.5,2021,2021.5,2022,2022.5,2023,2023.5,2024,2024.5,2025,2025.5,2026,2026.5,2027,2027.5,2028,2028.5,2029,2029.5,2030,2030.5,2031,2031.5,2032,2032.5,2033,2033.5,2034,2034.5,2035,2035.5,2036,2036.5,2037,2037.5,2038,2038.5,2039,2039.5,2040,2040.5,2041,2041.5,2042,2042.5,2043,2043.5,2044,2044.5,2045,2045.5,2046,2046.5,2047,2047.5,2048,2048.5,2049,2049.5,2050,2050.5,2051,2051.5,2052,2052.5,2053,2053.5,2054,2054.5,2055,2055.5,2056,2056.5,2057,2057.5,2058,2058.5,2059,2059.5,2060,2060.5,2061,2061.5,2062,2062.5,2063,2063.5,2064,2064.5,2065,2065.5,2066,2066.5,2067,2067.5,2068,2068.5,2069,2069.5,2070,2070.5,2071,2071.5,2072,2072.5,2073,2073.5,2074,2074.5,2075,2075.5,2076,2076.5,2077,2077.5,2078,2078.5,2079,2079.5,2080,2080.5,2081,2081.5,2082,2082.5,2083,2083.5,2084,2084.5,2085,2085.5,2086,2086.5,2087,2087.5,2088,2088.5,2089,2089.5,2090,2090.5,2091,2091.5,2092,2092.5,2093,2093.5,2094,2094.5,2095,2095.5,2096,2096.5,2097,2097.5,2098,2098.5,2099,2099.5,2100,2100.5,2101,2101.5,2102,2102.5,2103,2103.5,2104,2104.5,2105,2105.5,2106,2106.5,2107,2107.5,2108,2108.5,2109,2109.5,2110,2110.5,2111,2111.5,2112,2112.5,2113,2113.5,2114,2114.5,2115,2115.5,2116,2116.5,2117,2117.5,2118,2118.5,2119,2119.5,2120,2120.5,2121,2121.5,2122,2122.5,2123,2123.5,2124,2124.5,2125,2125.5,2126,2126.5,2127,2127.5,2128,2128.5,2129,2129.5,2130,2130.5,2131,2131.5,2132,2132.5,2133,2133.5,2134,2134.5,2135,2135.5,2136,2136.5,2137,2137.5,2138,2138.5,2139,2139.5,2140,2140.5,2141,2141.5,2142,2142.5,2143,2143.5,2144,2144.5,2145,2145.5,2146,2146.5,2147,2147.5,2148,2148.5,2149,2149.5,2150,2150.5,2151,2151.5,2152,2152.5,2153,2153.5,2154,2154.5,2155,2155.5,2156,2156.5,2157,2157.5,2158,2158.5,2159,2159.5,2160,2160.5,2161,2161.5,2162,2162.5,2163,2163.5,2164,2164.5,2165,2165.5,2166,2166.5,2167,2167.5,2168,2168.5,2169,2169.5,2170,2170.5,2171,2171.5,2172,2172.5,2173,2173.5,2174,2174.5,2175,2175.5,2176,2176.5,2177,2177.5,2178,2178.5,2179,2179.5,2180,2180.5,2181,2181.5,2182,2182.5,2183,2183.5,2184,2184.5,2185,2185.5,2186,2186.5,2187,2187.5,2188,2188.5,2189,2189.5,2190,2190.5,2191,2191.5,2192,2192.5,2193,2193.5,2194,2194.5,2195,2195.5,2196,2196.5,2197,2197.5,2198,2198.5,2199,2199.5,2200,2200.5,2201,2201.5,2202,2202.5,2203,2203.5,2204,2204.5,2205,2205.5,2206,2206.5,2207,2207.5,2208,2208.5,2209,2209.5,2210,2210.5,2211,2211.5,2212,2212.5,2213,2213.5,2214,2214.5,2215,2215.5,2216,2216.5,2217,2217.5,2218,2218.5,2219,2219.5,2220,2220.5,2221,2221.5,2222,2222.5,2223,2223.5,2224,2224.5,2225,2225.5,2226,2226.5,2227,2227.5,2228,2228.5,2229,2229.5,2230,2230.5,2231,2231.5,2232,2232.5,2233,2233.5,2234,2234.5,2235,2235.5,2236,2236.5,2237,2237.5,2238,2238.5,2239,2239.5,2240,2240.5,2241,2241.5,2242,2242.5,2243,2243.5,2244,2244.5,2245,2245.5,2246,2246.5,2247,2247.5,2248,2248.5,2249,2249.5,2250,2250.5,2251,2251.5,2252,2252.5,2253,2253.5,2254,2254.5,2255,2255.5,2256,2256.5,2257,2257.5,2258,2258.5,2259,2259.5,2260,2260.5,2261,2261.5,2262,2262.5,2263,2263.5,2264,2264.5,2265,2265.5,2266,2266.5,2267,2267.5,2268,2268.5,2269,2269.5,2270,2270.5,2271,2271.5,2272,2272.5,2273,2273.5,2274,2274.5,2275,2275.5,2276,2276.5,2277,2277.5,2278,2278.5,2279,2279.5,2280,2280.5,2281,2281.5,2282,2282.5,2283,2283.5,2284,2284.5,2285,2285.5,2286,2286.5,2287,2287.5,2288,2288.5,2289,2289.5,2290,2290.5,2291,2291.5,2292,2292.5,2293,2293.5,2294,2294.5,2295,2295.5,2296,2296.5,2297,2297.5,2298,2298.5,2299,2299.5,2300,2300.5,2301,2301.5,2302,2302.5,2303,2303.5,2304,2304.5,2305,2305.5,2306,2306.5,2307,2307.5,2308,2308.5,2309,2309.5,2310,2310.5,2311,2311.5,2312,2312.5,2313,2313.5,2314,2314.5,2315,2315.5,2316,2316.5,2317,2317.5,2318,2318.5,2319,2319.5,2320,2320.5,2321,2321.5,2322,2322.5,2323,2323.5,2324,2324.5,2325,2325.5,2326,2326.5,2327,2327.5,2328,2328.5,2329,2329.5,2330,2330.5,2331,2331.5,2332,2332.5,2333,2333.5,2334,2334.5,2335,2335.5,2336,2336.5,2337,2337.5,2338,2338.5,2339,2339.5,2340,2340.5,2341,2341.5,2342,2342.5,2343,2343.5,2344,2344.5,2345,2345.5,2346,2346.5,2347,2347.5,2348,2348.5,2349,2349.5,2350,2350.5,2351,2351.5,2352,2352.5,2353,2353.5,2354,2354.5,2355,2355.5,2356,2356.5,2357,2357.5,2358,2358.5,2359,2359.5,2360,2360.5,2361,2361.5,2362,2362.5,2363,2363.5,2364,2364.5,2365,2365.5,2366,2366.5,2367,2367.5,2368,2368.5,2369,2369.5,2370,2370.5,2371,2371.5,2372,2372.5,2373,2373.5,2374,2374.5,2375,2375.5,2376,2376.5,2377,2377.5,2378,2378.5,2379,2379.5,2380,2380.5,2381,2381.5,2382,2382.5,2383,2383.5,2384,2384.5,2385,2385.5,2386,2386.5,2387,2387.5,2388,2388.5,2389,2389.5,2390,2390.5,2391,2391.5,2392,2392.5,2393,2393.5,2394,2394.5,2395,2395.5,2396,2396.5,2397,2397.5,2398,2398.5,2399,2399.5,2400,2400.5,2401,2401.5,2402,2402.5,2403,2403.5,2404,2404.5,2405,2405.5,2406,2406.5,2407,2407.5,2408,2408.5,2409,2409.5,2410,2410.5,2411,2411.5,2412,2412.5,2413,2413.5,2414,2414.5,2415,2415.5,2416,2416.5,2417,2417.5,2418,2418.5,2419,2419.5,2420,2420.5,2421,2421.5,2422,2422.5,2423,2423.5,2424,2424.5,2425,2425.5,2426,2426.5,2427,2427.5,2428,2428.5,2429,2429.5,2430,2430.5,2431,2431.5,2432,2432.5,2433,2433.5,2434,2434.5,2435,2435.5,2436,2436.5,2437,2437.5,2438,2438.5,2439,2439.5,2440,2440.5,2441,2441.5,2442,2442.5,2443,2443.5,2444,2444.5,2445,2445.5,2446,2446.5,2447,2447.5,2448,2448.5,2449,2449.5,2450,2450.5,2451,2451.5,2452,2452.5,2453,2453.5,2454,2454.5,2455,2455.5,2456,2456.5,2457,2457.5,2458,2458.5,2459,2459.5,2460,2460.5,2461,2461.5,2462,2462.5,2463,2463.5,2464,2464.5,2465,2465.5,2466,2466.5,2467,2467.5,2468,2468.5,2469,2469.5,2470,2470.5,2471,2471.5,2472,2472.5,2473,2473.5,2474,2474.5,2475,2475.5,2476,2476.5,2477,2477.5,2478,2478.5,2479,2479.5,2480,2480.5,2481,2481.5,2482,2482.5,2483,2483.5,2484,2484.5,2485,2485.5,2486,2486.5,2487,2487.5,2488,2488.5,2489,2489.5,2490,2490.5,2491,2491.5,2492,2492.5,2493,2493.5,2494,2494.5,2495,2495.5,2496,2496.5,2497,2497.5,2498,2498.5,2499,2499.5,
,F260044,CIAT601,OT-002 (2026),Hyparrhenia rufa,Grasses,,0.878367,0.879416,0.880389,0.881288,0.88212,0.882888,0.883597,0.88425,0.884846,0.885389,0.885878,0.886315,0.886698,0.887029,0.887312,0.887549,0.887744,0.887902,0.888027,0.888125,0.888197,0.888247,0.888277,0.888286,0.888275,0.88824,0.888182,0.888099,0.887988,0.887849,0.887686,0.887495,0.88728,0.887042,0.886786,0.886513,0.886224,0.885919,0.885601,0.885269,0.884922,0.88456,0.884179,0.883781,0.883362,0.882924,0.882466,0.881989,0.881492,0.880976,0.880444,0.879895,0.879332,0.878756,0.87817,0.877573,0.876967,0.876352,0.875729,0.875101,0.874465,0.873824,0.87318,0.872531,0.871881,0.871229,0.870577,0.86993,0.869285,0.868645,0.868012,0.867386,0.866769,0.86616,0.865562,0.864974,0.864394,0.863821,0.863259,0.862713,0.862182,0.861668,0.861172,0.860697,0.860247,0.859822,0.859425,0.859054,0.85871,0.85839,0.858094,0.857821,0.857571,0.857343,0.857137,0.856951,0.856781,0.856626,0.856485,0.856356,0.856237,0.856128,0.856029,0.855942,0.855864,0.855793,0.85573,0.855674,0.855623,0.855578,0.855537,0.855494,0.85545,0.855405,0.855357,0.855302,0.855235,0.855159,0.855071,0.854974,0.854867,0.85475,0.854618,0.854471,0.854308,0.854128,0.853931,0.853716,0.853482,0.853229,0.852956,0.852664,0.852353,0.852025,0.85168,0.85132,0.850947,0.85056,0.85016,0.849748,0.849327,0.848898,0.848462,0.848021,0.847576,0.847129,0.846681,0.846229,0.845773,0.845311,0.844843,0.844371,0.843893,0.843412,0.84293,0.84245,0.841969,0.841487,0.841001,0.840516,0.840031,0.83955,0.839073,0.8386,0.83813,0.837662,0.837194,0.836725,0.836255,0.835784,0.835307,0.834826,0.834336,0.833834,0.833317,0.832786,0.832243,0.831685,0.831112,0.830523,0.829915,0.829288,0.828641,0.827972,0.827281,0.826566,0.825828,0.825064,0.824272,0.823452,0.822602,0.821721,0.820812,0.819874,0.818904,0.817898,0.816856,0.815775,0.814657,0.813503,0.812311,0.811083,0.809819,0.808515,0.807175,0.805799,0.804389,0.802944,0.801466,0.799954,0.79841,0.796834,0.795228,0.793591,0.791924,0.790229,0.788506,0.786756,0.784977,0.783174,0.781347,0.779499,0.77763,0.775741,0.773835,0.77191,0.769969,0.768015,0.766052,0.764082,0.762107,0.760128,0.75815,0.756175,0.754205,0.752243,0.750293,0.748356,0.746435,0.744531,0.742648,0.74079,0.738958,0.737156,0.735386,0.733651,0.731954,0.730298,0.728685,0.727119,0.7256,0.724133,0.722718,0.721359,0.720056,0.718809,0.717621,0.716492,0.715422,0.714413,0.713462,0.712569,0.711733,0.710952,0.710224,0.709548,0.708919,0.708335,0.707795,0.707293,0.706826,0.70639,0.705982,0.705597,0.70523,0.704878,0.704536,0.7042,0.703866,0.703529,0.703183,0.702827,0.702458,0.702071,0.701663,0.701232,0.700777,0.700295,0.699787,0.699249,0.698681,0.698084,0.697458,0.696804,0.696123,0.695416,0.694686,0.693932,0.693158,0.692367,0.691559,0.690738,0.689908,0.689069,0.688226,0.68738,0.686532,0.685686,0.684842,0.684005,0.683175,0.682356,0.681545,0.680747,0.67996,0.679188,0.678431,0.67769,0.676963,0.676251,0.675555,0.674875,0.67421,0.67356,0.672925,0.672303,0.671695,0.671101,0.670518,0.669947,0.669387,0.668837,0.668296,0.667764,0.667239,0.666722,0.66621,0.665703,0.665202,0.664704,0.664211,0.663721,0.663236,0.662754,0.662276,0.6618,0.661327,0.660857,0.66039,0.659925,0.659464,0.659006,0.658551,0.658098,0.65765,0.657206,0.656768,0.656337,0.655912,0.655496,0.655089,0.654692,0.654307,0.653934,0.653575,0.653228,0.652896,0.652582,0.652287,0.652015,0.651765,0.651541,0.651343,0.651173,0.651032,0.650918,0.650835,0.650782,0.650761,0.650775,0.650823,0.650908,0.65103,0.65119,0.651388,0.651626,0.651903,0.652221,0.652578,0.652976,0.653412,0.653885,0.654397,0.654947,0.655537,0.656165,0.656832,0.657534,0.65827,0.659038,0.659836,0.660663,0.661515,0.662392,0.663289,0.664205,0.665136,0.66608,0.667034,0.667993,0.668956,0.669918,0.670875,0.671827,0.672768,0.673696,0.674608,0.6755,0.676369,0.677212,0.678025,0.678808,0.679557,0.68027,0.680945,0.681581,0.682176,0.682729,0.683239,0.683705,0.684127,0.684504,0.684838,0.685127,0.685374,0.685579,0.685742,0.685866,0.685951,0.686001,0.686016,0.685998,0.685948,0.68587,0.685765,0.685637,0.685488,0.685322,0.685141,0.684949,0.684748,0.684541,0.684331,0.684122,0.683916,0.683718,0.683532,0.683361,0.683209,0.683077,0.68297,0.682892,0.682846,0.682836,0.682864,0.682932,0.683045,0.683203,0.683409,0.683667,0.683977,0.684341,0.684762,0.68524,0.685776,0.686372,0.687026,0.687739,0.688512,0.689344,0.690234,0.691181,0.692185,0.693244,0.694358,0.695523,0.696739,0.698005,0.699319,0.700678,0.702081,0.703525,0.70501,0.706535,0.708096,0.709693,0.711326,0.712993,0.714694,0.716429,0.718197,0.719998,0.721832,0.7237,0.725602,0.727537,0.729508,0.731514,0.733557,0.735634,0.737746,0.739893,0.742073,0.744287,0.746531,0.748804,0.751104,0.753428,0.755771,0.758131,0.760502,0.762879,0.765257,0.767629,0.76999,0.772333,0.774651,0.776935,0.779176,0.781367,0.783499,0.785564,0.787551,0.789452,0.791258,0.79296,0.79455,0.79602,0.79736,0.798565,0.799628,0.800541,0.8013,0.801899,0.802337,0.80261,0.802715,0.80265,0.802415,0.802011,0.801438,0.800699,0.799797,0.798735,0.797517,0.796149,0.794635,0.792981,0.791194,0.78928,0.787246,0.7851,0.782847,0.780495,0.778052,0.775523,0.772917,0.770239,0.767495,0.76469,0.76183,0.75892,0.755965,0.752967,0.749932,0.746861,0.743758,0.740623,0.737459,0.734266,0.731044,0.727792,0.724509,0.721195,0.717847,0.714462,0.711037,0.707569,0.704055,0.70049,0.696871,0.693192,0.68945,0.685639,0.681755,0.677793,0.673749,0.66962,0.6654,0.661087,0.656678,0.652171,0.647564,0.642856,0.638047,0.633136,0.628126,0.623019,0.617817,0.612523,0.607144,0.601682,0.596144,0.590536,0.584866,0.57914,0.573367,0.567555,0.561712,0.555848,0.549972,0.544091,0.538216,0.532353,0.526514,0.520704,0.514933,0.509208,0.503536,0.497924,0.49238,0.486906,0.481507,0.476189,0.470954,0.465806,0.460746,0.455777,0.4509,0.446116,0.441424,0.436826,0.432319,0.427904,0.423578,0.41934,0.415189,0.411122,0.407137,0.403233,0.399406,0.395654,0.391975,0.388367,0.384827,0.381353,0.377944,0.374597,0.37131,0.368083,0.364914,0.361801,0.358743,0.35574,0.352791,0.349895,0.347052,0.34426,0.34152,0.338832,0.336194,0.333606,0.33107,0.328584,0.326148,0.323762,0.321426,0.319141,0.316905,0.314719,0.312581,0.310492,0.308452,0.306459,0.304513,0.302613,0.30076,0.298952,0.29719,0.29547,0.293794,0.292159,0.290566,0.289013,0.287499,0.286023,0.284585,0.283182,0.281813,0.280478,0.279176,0.277903,0.27666,0.275446,0.274258,0.273096,0.271958,0.270842,0.269748,0.268674,0.267618,0.26658,0.265557,0.264549,0.263555,0.262573,0.261602,0.260641,0.259689,0.258745,0.257809,0.25688,0.255957,0.25504,0.254128,0.253222,0.252321,0.251424,0.250532,0.249644,0.24876,0.24788,0.247005,0.246134,0.245268,0.244407,0.24355,0.2427,0.241855,0.241016,0.240184,0.239359,0.238541,0.23773,0.236928,0.236134,0.235348,0.234572,0.233804,0.233046,0.232298,0.231559,0.230831,0.230113,0.229405,0.228708,0.22802,0.227343,0.226675,0.226017,0.225369,0.22473,0.2241,0.22348,0.222868,0.222265,0.221671,0.221085,0.220507,0.219937,0.219374,0.218819,0.21827,0.217728,0.217192,0.216662,0.216137,0.215618,0.215103,0.214593,0.214087,0.213585,0.213087,0.212592,0.2121,0.211612,0.211126,0.210643,0.210163,0.209685,0.20921,0.208736,0.208265,0.207795,0.207328,0.206862,0.206399,0.205937,0.205477,0.205019,0.204562,0.204106,0.203652,0.203199,0.202747,0.202297,0.201847,0.201399,0.200951,0.200504,0.200057,0.199611,0.199166,0.198722,0.198279,0.197838,0.197397,0.196958,0.196521,0.196086,0.195652,0.195221,0.194791,0.194364,0.193939,0.193517,0.193097,0.19268,0.192265,0.191853,0.191444,0.191037,0.190633,0.190231,0.189832,0.189435,0.189041,0.188648,0.188258,0.187869,0.187482,0.187097,0.186714,0.186333,0.185953,0.185574,0.185197,0.184821,0.184445,0.184071,0.183698,0.183325,0.182954,0.182583,0.182214,0.181846,0.181479,0.181113,0.180748,0.180385,0.180023,0.179662,0.179302,0.178943,0.178586,0.17823,0.177876,0.177523,0.17717,0.176818,0.176468,0.176118,0.17577,0.175423,0.175078,0.174735,0.174394,0.174054,0.173716,0.173379,0.173044,0.17271,0.172379,0.172049,0.17172,0.171394,0.171069,0.170746,0.170425,0.170105,0.169787,0.169472,0.169159,0.168848,0.168538,0.168229,0.167922,0.167617,0.167314,0.167012,0.166712,0.166415,0.166119,0.165824,0.165532,0.16524,0.164951,0.164663,0.164377,0.164093,0.16381,0.163529,0.163251,0.162975,0.1627,0.162427,0.162157,0.161888,0.16162,0.161354,0.16109,0.160828,0.160567,0.160306,0.160047,0.159788,0.15953,0.159273,0.159019,0.158765,0.158514,0.158263,0.158015,0.157767,0.157521,0.157277,0.157034,0.156794,0.156555,0.156318,0.156083,0.155851,0.155619,0.155389,0.15516,0.154931,0.154703,0.154476,0.154249,0.154023,0.153798,0.153574,0.153352,0.153131,0.152912,0.152695,0.152478,0.152263,0.152049,0.151837,0.151626,0.151416,0.151208,0.151002,0.150797,0.150594,0.150391,0.150189,0.149988,0.149789,0.14959,0.149393,0.149197,0.149001,0.148807,0.148614,0.148422,0.14823,0.14804,0.14785,0.147662,0.147474,0.147288,0.147103,0.146919,0.146735,0.146553,0.146371,0.146191,0.146012,0.145833,0.145655,0.145478,0.145302,0.145126,0.144951,0.144777,0.144604,0.144432,0.14426,0.14409,0.14392,0.14375,0.143583,0.143416,0.14325,0.143085,0.142921,0.142758,0.142595,0.142433,0.142272,0.142111,0.14195,0.14179,0.14163,0.14147,0.141311,0.141152,0.140994,0.140836,0.140678,0.14052,0.140363,0.140206,0.140049,0.139892,0.139736,0.139579,0.139423,0.139268,0.139112,0.138958,0.138803,0.138648,0.138494,0.138341,0.138187,0.138034,0.137882,0.13773,0.137578,0.137426,0.137275,0.137125,0.136975,0.136826,0.136677,0.136529,0.136381,0.136233,0.136086,0.13594,0.135794,0.135648,0.135502,0.135357,0.135212,0.135067,0.134924,0.13478,0.134638,0.134495,0.134353,0.134212,0.134071,0.13393,0.13379,0.133651,0.133512,0.133373,0.133235,0.133097,0.132959,0.132822,0.132686,0.132551,0.132417,0.132283,0.13215,0.132018,0.131887,0.131758,0.13163,0.131502,0.131376,0.131251,0.131127,0.131004,0.130882,0.130761,0.130642,0.130524,0.130408,0.130293,0.130179,0.130067,0.129957,0.129848,0.129742,0.129637,0.129534,0.129432,0.129332,0.129233,0.129135,0.129039,0.128944,0.128851,0.128758,0.128667,0.128577,0.128488,0.1284,0.128312,0.128225,0.12814,0.128055,0.127971,0.127888,0.127806,0.127726,0.127646,0.127567,0.127489,0.127412,0.127336,0.12726,0.127186,0.127113,0.127041,0.12697,0.126899,0.12683,0.126761,0.126693,0.126626,0.126559,0.126493,0.126428,0.126363,0.126298,0.126234,0.12617,0.126107,0.126044,0.125981,0.125918,0.125856,0.125793,0.12573,0.125668,0.125605,0.125542,0.125478,0.125414,0.12535,0.125286,0.125223,0.125159,0.125095,0.125031,0.124966,0.124901,0.124835,0.124769,0.124703,0.124636,0.124569,0.124501,0.124433,0.124365,0.124296,0.124226,0.124156,0.124086,0.124016,0.123945,0.123874,0.123802,0.123731,0.123659,0.123588,0.123516,0.123443,0.12337,0.123297,0.123223,0.123149,0.123074,0.123,0.122926,0.122851,0.122776,0.122701,0.122626,0.122551,0.122476,0.1224,0.122325,0.122249,0.122174,0.122098,0.122023,0.121948,0.121872,0.121797,0.121722,0.121647,0.121572,0.121497,0.121423,0.121349,0.121275,0.1212,0.121126,0.121052,0.120978,0.120904,0.12083,0.120757,0.120683,0.120609,0.120535,0.120462,0.120388,0.120314,0.12024,0.120166,0.120092,0.120018,0.119944,0.119869,0.119795,0.11972,0.119646,0.119571,0.119495,0.11942,0.119344,0.119269,0.119193,0.119118,0.119042,0.118967,0.118892,0.118816,0.118741,0.118666,0.118591,0.118516,0.118441,0.118367,0.118292,0.118218,0.118143,0.118069,0.117995,0.11792,0.117846,0.117773,0.117699,0.117626,0.117553,0.117481,0.117408,0.117337,0.117265,0.117193,0.117121,0.117049,0.116978,0.116907,0.116836,0.116766,0.116695,0.116625,0.116554,0.116484,0.116414,0.116345,0.116276,0.116207,0.116139,0.116071,0.116003,0.115935,0.115868,0.1158,0.115733,0.115666,0.115601,0.115537,0.115472,0.115408,0.115344,0.11528,0.115217,0.115153,0.11509,0.115027,0.114963,0.1149,0.114837,0.114774,0.114711,0.114649,0.114586,0.114524,0.114462,0.1144,0.114339,0.114278,0.114217,0.114156,0.114096,0.114035,0.113974,0.113914,0.113853,0.113792,0.113732,0.113671,0.11361,0.113549,0.113488,0.113427,0.113365,0.113304,0.113242,0.11318,0.113119,0.113058,0.112997,0.112936,0.112876,0.112816,0.112756,0.112697,0.112637,0.112579,0.11252,0.112462,0.112404,0.112347,0.112289,0.112232,0.112175,0.112119,0.112063,0.112007,0.111953,0.111899,0.111846,0.111794,0.111742,0.11169,0.111638,0.111586,0.111535,0.111485,0.111435,0.111385,0.111336,0.111286,0.111236,0.111185,0.111136,0.111088,0.11104,0.110992,0.110944,0.110897,0.110849,0.110802,0.110753,0.110705,0.110655,0.110605,0.110554,0.110502,0.110447,0.110392,0.110336,0.110277,0.110217,0.110155,0.110092,0.110027,0.109962,0.109895,0.109827,0.109758,0.109689,0.10962,0.10955,0.109481,0.109412,0.109343,0.109275,0.111285,0.111242,0.111201,0.111161,0.111123,0.111086,0.11105,0.111015,0.110981,0.110948,0.110916,0.110886,0.110857,0.110831,0.110805,0.110781,0.110758,0.110736,0.110715,0.110694,0.110674,0.110654,0.110634,0.110614,0.110595,0.110576,0.110558,0.110542,0.110527,0.110515,0.110504,0.110496,0.11049,0.110485,0.110482,0.110481,0.110481,0.110483,0.110485,0.11049,0.110496,0.110504,0.110514,0.110526,0.110541,0.110559,0.11058,0.110603,0.11063,0.11066,0.110693,0.110729,0.110768,0.110811,0.110858,0.110908,0.110962,0.111019,0.11108,0.111145,0.111212,0.111283,0.111357,0.111434,0.111513,0.111596,0.111682,0.11177,0.111862,0.111956,0.112052,0.112151,0.112251,0.112353,0.112455,0.112559,0.112664,0.11277,0.112876,0.112984,0.113094,0.113205,0.113318,0.113432,0.113549,0.113669,0.11379,0.113914,0.114041,0.11417,0.114301,0.114433,0.114568,0.114704,0.114841,0.11498,0.11512,0.115263,0.115407,0.115553,0.115702,0.115853,0.116006,0.116162,0.116319,0.116477,0.116637,0.116798,0.11696,0.117122,0.117285,0.117447,0.11761,0.117773,0.117936,0.118099,0.118262,0.118426,0.118589,0.118751,0.118914,0.119075,0.119235,0.119393,0.119549,0.119702,0.119852,0.119998,0.120142,0.120281,0.120417,0.12055,0.12068,0.120807,0.120931,0.121053,0.121173,0.121291,0.121408,0.121523,0.121637,0.121749,0.121861,0.121971,0.122081,0.122191,0.122301,0.122411,0.122522,0.122634,0.122747,0.122862,0.122978,0.123096,0.123215,0.123336,0.123459,0.123582,0.123707,0.123832,0.123957,0.124082,0.124207,0.124331,0.124455,0.124577,0.124697,0.124815,0.12493,0.125043,0.125152,0.125259,0.125362,0.125461,0.125557,0.125648,0.125735,0.125818,0.125896,0.12597,0.126039,0.126104,0.126164,0.12622,0.126273,0.126323,0.126369,0.126412,0.126452,0.126489,0.126524,0.126556,0.126585,0.126612,0.126638,0.126661,0.126683,0.126702,0.126721,0.126738,0.126753,0.126768,0.126781,0.126793,0.126803,0.126813,0.126821,0.126827,0.126831,0.126834,0.126834,0.126831,0.126826,0.126818,0.126808,0.126793,0.126776,0.126754,0.126728,0.126697,0.126662,0.126623,0.126579,0.126531,0.126478,0.126421,0.12636,0.126294,0.126224,0.126149,0.12607,0.125986,0.125897,0.125804,0.125707,0.125605,0.125499,0.125389,0.125275,0.125157,0.125037,0.124913,0.124787,0.124659,0.124529,0.124398,0.124266,0.124133,0.124,0.123867,0.123734,0.123601,0.123469,0.123338,0.123207,0.123077,0.122947,0.122819,0.122692,0.122566,0.122441,0.122317,0.122195,0.122074,0.121955,0.121837,0.12172,0.121605,0.121491,0.121377,0.121265,0.121154,0.121044,0.120936,0.120829,0.120724,0.120621,0.120519,0.120418,0.120319,0.120221,0.120123,0.120027,0.119931,0.119837,0.119744,0.119652,0.119561,0.119471,0.119383,0.119296,0.11921,0.119125,0.119042,0.118959,0.118877,0.118796,0.118715,0.118636,0.118558,0.118481,0.118405,0.11833,0.118256,0.118184,0.118114,0.118046,0.11798,0.117916,0.117854,0.117794,0.117737,0.117681,0.117628,0.117576,0.117526,0.117478,0.11743,0.117385,0.117341,0.117299,0.117258,0.117219,0.117182,0.117146,0.117112,0.117078,0.117047,0.117016,0.116985,0.116955,0.116926,0.116897,0.116868,0.11684,0.116811,0.116783,0.116756,0.116728,0.1167,0.116671,0.116642,0.116613,0.116583,0.116553,0.116523,0.116491,0.116459,0.116426,0.116392,0.116357,0.116321,0.116283,0.116245,0.116206,0.116166,0.116125,0.116082,0.116039,0.115994,0.115949,0.115902,0.115855,0.115808,0.11576,0.115713,0.115665,0.115617,0.11557,0.115524,0.115477,0.115431,0.115386,0.115342,0.115299,0.115256,0.115214,0.115172,0.115132,0.115092,0.115053,0.115016,0.114979,0.114945,0.114912,0.114881,0.114851,0.114824,0.114798,0.114773,0.11475,0.114729,0.114709,0.114691,0.114674,0.114659,0.114646,0.114634,0.114624,0.114615,0.114609,0.114605,0.114602,0.114603,0.114605,0.114609,0.114616,0.114624,0.114635,0.114647,0.114662,0.114679,0.114697,0.114719,0.114742,0.114767,0.114795,0.114824,0.114856,0.114889,0.114925,0.114964,0.115004,0.115048,0.115094,0.115142,0.115193,0.115246,0.115302,0.11536,0.115421,0.115484,0.115549,0.115617,0.115688,0.115761,0.115838,0.115917,0.115999,0.116084,0.116173,0.116264,0.11636,0.116459,0.116562,0.116668,0.116779,0.116893,0.117011,0.117132,0.117257,0.117387,0.11752,0.117657,0.117799,0.117943,0.118092,0.118244,0.1184,0.118559,0.118723,0.118889,0.11906,0.119235,0.119413,0.119595,0.11978,0.119969,0.120161,0.120357,0.120556,0.120758,0.120965,0.121174,0.121388,0.121605,0.121825,0.122049,0.122276,0.122506,0.12274,0.122977,0.123216,0.123459,0.123705,0.123954,0.124206,0.12446,0.124717,0.124976,0.125237,0.125501,0.125767,0.126035,0.126305,0.126577,0.12685,0.127126,0.127403,0.127682,0.127963,0.128246,0.128529,0.128815,0.129102,0.12939,0.12968,0.129972,0.130264,0.130559,0.130854,0.13115,0.131447,0.131745,0.132043,0.132341,0.132639,0.132937,0.133234,0.13353,0.133825,0.134118,0.134408,0.134697,0.134983,0.135267,0.135548,0.135826,0.136101,0.136373,0.136642,0.136907,0.137169,0.137427,0.137682,0.137934,0.138182,0.138427,0.138669,0.138909,0.139146,0.139381,0.139615,0.139847,0.140079,0.14031,0.140543,0.140777,0.141014,0.141255,0.141501,0.141752,0.142011,0.142277,0.142553,0.142838,0.143134,0.143442,0.143763,0.144096,0.144443,0.144803,0.145178,0.145568,0.145972,0.146391,0.146825,0.147274,0.147737,0.148215,0.148707,0.149213,0.149734,0.150268,0.150818,0.151381,0.15196,0.152553,0.153161,0.153784,0.154422,0.155076,0.155745,0.156429,0.157127,0.157841,0.15857,0.159314,0.160074,0.160848,0.161639,0.162445,0.163266,0.164103,0.164955,0.165821,0.166702,0.167596,0.168504,0.169424,0.170356,0.1713,0.172255,0.173221,0.174197,0.175183,0.176177,0.17718,0.17819,0.179207,0.180229,0.181255,0.182286,0.183319,0.184355,0.185392,0.18643,0.187467,0.188504,0.189539,0.190573,0.191604,0.192633,0.193659,0.194682,0.195701,0.196717,0.197728,0.198735,0.199736,0.200732,0.201722,0.202705,0.203682,0.20465,0.205611,0.206563,0.207506,0.20844,0.209365,0.21028,0.211184,0.212077,0.212959,0.213829,0.214686,0.215532,0.216364,0.217182,0.217987,0.218778,0.219555,0.220317,0.221065,0.221797,0.222515,0.223217,0.223903,0.224574,0.225229,0.225869,0.226493,0.227101,0.227695,0.228273,0.228836,0.229384,0.229917,0.230435,0.230939,0.231428,0.231904,0.232366,0.232815,0.233252,0.233676,0.234088,0.234489,0.234878,0.235256,0.235624,0.235982,0.23633,0.236668,0.236997,0.237316,0.237627,0.237929,0.238222,0.238507,0.238784,0.239054,0.239317,0.239572,0.239822,0.240065,0.240303,0.240534,0.240761,0.240983,0.2412,0.241413,0.241622,0.241826,0.242027,0.242224,0.242419,0.24261,0.242799,0.242985,0.243168,0.243349,0.243527,0.243702,0.243874,0.244041,0.244206,0.244366,0.244521,0.244672,0.244819,0.24496,0.245097,0.245228,0.245354,0.245475,0.24559,0.245699,0.245802,0.245899,0.245989,0.246074,0.246152,0.246225,0.246291,0.246352,0.246406,0.246455,0.246498,0.246534,0.246565,0.246591,0.246611,0.246625,0.246634,0.246638,0.246637,0.246632,0.246622,0.246608,0.246589,0.246566,0.246539,0.246508,0.246474,0.246436,0.246394,0.24635,0.246302,0.246252,0.246199,0.246143,0.246085,0.246025,0.245963,0.245899,0.245833,0.245765,0.245695,0.245624,0.24555,0.245474,0.245396,0.245315,0.245233,0.245148,0.245061,0.244971,0.24488,0.244786,0.244689,0.24459,0.244489,0.244385,0.244278,0.244169,0.244058,0.243945,0.243829,0.243711,0.24359,0.243467,0.243341,0.243212,0.243081,0.242946,0.242808,0.242668,0.242524,0.242377,0.242227,0.242074,0.241917,0.241756,0.241593,0.241426,0.241255,0.241082,0.240906,0.240727,0.240546,0.240362,0.240177,0.239989,0.239799,0.239608,0.239414,0.239219,0.239021,0.238822,0.238621,0.238418,0.238213,0.238006,0.237798,0.237587,0.237376,0.237163,0.23695,0.236736,0.236521,0.236306,0.236092,0.235877,0.235663,0.235449,0.235237,0.235024,0.234813,0.234603,0.234395,0.234188,0.233983,0.23378,0.233579,0.233379,0.233182,0.232987,0.232793,0.232602,0.232412,0.232224,0.232039,0.231855,0.231674,0.231496,0.231321,0.231148,0.230979,0.230812,0.230649,0.23049,0.230333,0.230179,0.230028,0.22988,0.229733,0.229589,0.229447,0.229307,0.229169,0.229033,0.228898,0.228766,0.228635,0.228506,0.228378,0.228251,0.228124,0.227998,0.227872,0.227747,0.227621,0.227496,0.22737,0.227245,0.227119,0.226994,0.226869,0.226744,0.226619,0.226495,0.226371,0.226247,0.226124,0.226001,0.225879,0.225758,0.225638,0.225518,0.225401,0.225284,0.22517,0.225057,0.224946,0.224837,0.22473,0.224625,0.224523,0.224423,0.224326,0.224232,0.22414,0.224052,0.223966,0.223883,0.223803,0.223725,0.22365,0.223578,0.223507,0.223439,0.223372,0.223308,0.223246,0.223186,0.223127,0.22307,0.223014,0.222959,0.222904,0.222849,0.222794,0.222739,0.222684,0.222629,0.222575,0.22252,0.222467,0.222414,0.222361,0.222308,0.222256,0.222203,0.222149,0.222094,0.222038,0.22198,0.221921,0.221861,0.221799,0.221736,0.22167,0.221603,0.221533,0.221461,0.221387,0.221309,0.221228,0.221145,0.221058,0.220968,0.220874,0.220776,0.220675,0.22057,0.22046,0.220347,0.22023,0.220108,0.219983,0.219853,0.219718,0.219579,0.219435,0.219287,0.219135,0.218979,0.218819,0.218656,0.218489,0.218319,0.218145,0.217969,0.217789,0.217607,0.217422,0.217234,0.217044,0.216853,0.21666,0.216464,0.216268,0.21607,0.21587,0.215668,0.215465,0.215261,0.215055,0.214849,0.214642,0.214435,0.214228,0.214021,0.213814,0.213608,0.213402,0.213197,0.212993,0.212789,0.212587,0.212386,0.212186,0.211988,0.211791,0.211596,0.211402,0.21121,0.21102,0.21083,0.210641,0.210454,0.210267,0.210081,0.209894,0.209709,0.209523,0.209338,0.209153,0.208968,0.208783,0.208597,0.208412,0.208227,0.208041,0.207855,0.207669,0.207482,0.207295,0.207108,0.206921,0.206735,0.206551,0.206368,0.206186,0.206005,0.205827,0.205651,0.205476,0.205304,0.205135,0.204968,0.204804,0.204642,0.204482,0.204325,0.20417,0.204016,0.203864,0.203714,0.203566,0.20342,0.203276,0.203134,0.202995,0.202858,0.202724,0.202593,0.202464,0.202338,0.202215,0.202094,0.201977,0.201863,0.201753,0.201646,0.201542,0.201443,0.201348,0.201256,0.201169,0.201085,0.201006,0.200931,0.200859,0.200792,0.20073,0.200671,0.200617,0.200567,0.200522,0.200481,0.200445,0.200413,0.200386,0.200364,0.200348,0.200336,0.20033,0.200329,0.200334,0.200345,0.200362,0.200385,0.200415,0.200452,0.200495,0.200546,0.200603,0.200667,0.200739,0.200816,0.200901,0.200991,0.201087,0.201188,0.201295,0.201406,0.201522,0.201642,0.201766,0.201895,0.202027,0.202163,0.202303,0.202446,0.202593,0.202744,0.202898,0.203056,0.203217,0.203381,0.20355,0.203722,0.203897,0.204077,0.20426,0.204448,0.204639,0.204834,0.205033,0.205236,0.205443,0.205654,0.205869,0.206089,0.206312,0.20654,0.206773,0.20701,0.207251,0.207498,0.207749,0.208005,0.208267,0.208534,0.208806,0.209084,0.209369,0.209659,0.209955,0.210257,0.210565,0.210878,0.211196,0.211518,0.211843,0.21217,0.2125,0.212832,0.213164,0.213496,0.213828,0.214158,0.214486,0.21481,0.215131,0.215447,0.215759,0.216067,0.216369,0.216667,0.21696,0.217249,0.217535,0.217817,0.218096,0.218373,0.218648,0.218921,0.219192,0.219462,0.219729,0.219995,0.220258,0.220519,0.220776,0.221029,0.221278,0.221523,0.221764,0.221999,0.22223,0.222455,0.222674,0.222887,0.223095,0.223296,0.223492,0.223682,0.223867,0.224048,0.224225,0.224399,0.224571,0.224742,0.224913,0.225084,0.225257,0.225431,0.225607,0.225784,0.225963,0.226143,0.226326,0.226509,0.226695,0.226881,0.227069,0.227257,0.227445,0.227633,0.227821,0.228008,0.228195,0.22838,0.228564,0.228748,0.228931,0.229113,0.229294,0.229474,0.229652,0.229829,0.230004,0.230176,0.230343,0.230506,0.230664,0.230814,0.230955,0.231087,0.231207,0.231314,0.231406,0.231482,0.23154,0.23158,0.231601,0.231602,0.231585,0.231548,0.231494,0.231423,0.231337,0.231237,0.231126,0.231006,0.230878,0.230746,0.230611,0.230477,0.230343,0.230213,0.230088,0.229969,0.229857,0.229752,0.229654,0.229565,0.229482,0.229408,0.22934,0.229279,0.229224,0.229176,0.229133,0.229096,0.229064,0.229035,0.229011,0.22899,0.228972,0.228957,0.228945,0.228936,0.228931,0.228929,0.228931,0.228936,0.228945,0.228957,0.228972,0.228991,0.229014,0.22904,0.229069,0.229101,0.229137,0.229175,0.229216,0.229259,0.229303,0.229349,0.229395,0.229441,0.229485,0.229528,0.229568,0.229605,0.229638,0.229666,0.229688,0.229703,0.229711,0.229711,0.229702,0.229685,0.229659,0.229624,0.229581,0.22953,0.229471,0.229405,0.229332,0.229255,0.229173,0.229087,0.229,0.22891,0.22882,0.228729,0.228639,0.228549,0.228461,0.228374,0.228289,0.228205,0.228124,0.228043,0.227964,0.227887,0.227811,0.227737,0.227664,0.227593,0.227525,0.227458,0.227393,0.22733,0.227268,0.227206,0.227145,0.227085,0.227024,0.226964,0.226904,0.226843,0.226783,0.226723,0.226663,0.226603,0.226543,0.226482,0.226422,0.226362,0.226301,0.22624,0.226179,0.226118,0.226057,0.225995,0.225933,0.225871,0.225807,0.225743,0.225677,0.225611,0.225543,0.225473,0.225403,0.225331,0.225258,0.225184,0.225109,0.225033,0.224956,0.224877,0.224799,0.22472,0.224641,0.224562,0.224484,0.224406,0.224329,0.224252,0.224176,0.224102,0.224028,0.223955,0.223884,0.223815,0.223746,0.22368,0.223615,0.223551,0.223489,0.223428,0.223367,0.223308,0.223249,0.223191,0.223132,0.223073,0.223014,0.222954,0.222894,0.222833,0.222771,0.222709,0.222647,0.222583,0.222519,0.222453,0.222387,0.222319,0.222249,0.222178,0.222105,0.22203,0.221954,0.221875,0.221795,0.221713,0.221629,0.221544,0.221456,0.221366,0.221274,0.22118,0.221083,0.220984,0.220882,0.220778,0.220673,0.220565,0.220455,0.220343,0.22023,0.220115,0.219998,0.21988,0.219761,0.21964,0.219519,0.219398,0.219275,0.219152,0.219029,0.218905,0.218782,0.218658,0.218534,0.218411,0.21829,0.218169,0.218051,0.217934,0.21782,0.217709,0.2176,0.217494,0.217391,0.21729,0.217192,0.217097,0.217005,0.216915,0.21683,0.216749,0.216674,0.216604,0.216541,0.216484,0.216435,0.216392,0.216357,0.21633,0.216309,0.216297,0.216292,0.216294,0.216306,0.216325,0.216353,0.21639,0.216436,0.216491,0.216554,0.216627,0.216709,0.216801,0.216902,0.217012,0.217133,0.217264,0.217405,0.217556,0.217719,0.217891,0.218074,0.218267,0.218471,0.218686,0.218912,0.219151,0.219402,0.219667,0.219947,0.220244,0.220557,0.220891,0.221244,0.221621,0.222021,0.222447,0.222899,0.223379,0.223888,0.224425,0.22499,0.225586,0.22621,0.226863,0.227545,0.228256,0.228996,0.229765,0.230563,0.23139,0.232247,0.233135,0.234054,0.235007,0.235993,0.237016,0.238076,0.239176,0.240318,0.241502,0.242733,0.24401,0.245337,0.246716,0.248147,0.249634,0.251179,0.252782,0.254446,0.256171,0.257958,0.259807,0.26172,0.263694,0.26573,0.267825,0.269977,0.272185,0.274446,0.276755,0.27911,0.281507,0.283943,0.286414,0.288916,0.291448,0.294005,0.296587,0.29919,0.301813,0.304453,0.30711,0.309781,0.312464,0.315156,0.317856,0.320559,0.323264,0.325966,0.328661,0.331346,0.334017,0.336669,0.339297,0.341898,0.344468,0.347003,0.3495,0.351956,0.354369,0.356738,0.35906,0.361336,0.363565,0.365747,0.367881,0.369969,0.37201,0.374006,0.375956,0.37786,0.37972,0.381533,0.383301,0.385022,0.386698,0.388326,0.389908,0.391444,0.392934,0.394377,0.395775,0.397126,0.398433,0.399693,0.400909,0.402079,0.403204,0.404284,0.405319,0.40631,0.407255,0.408155,0.409009,0.409819,0.410584,0.411304,0.41198,0.412612,0.413202,0.41375,0.414256,0.414721,0.415146,0.415532,0.415879,0.416188,0.41646,0.416695,0.416894,0.417058,0.417187,0.417282,0.417343,0.417372,0.417368,0.417334,0.417269,0.417174,0.417051,0.416901,0.416724,0.416521,0.416293,0.416041,0.415765,0.415467,0.415148,0.414807,0.414446,0.414066,0.413667,0.41325,0.412816,0.412365,0.411898,0.411417,0.410922,0.410414,0.409893,0.409363,0.408821,0.408271,0.407711,0.407142,0.406566,0.405981,0.405389,0.40479,0.404184,0.403572,0.402954,0.402331,0.401702,0.401068,0.40043,0.399787,0.399141,0.398491,0.397838,0.397184,0.396528,0.395871,0.395213,0.394556,0.393899,0.393243,0.392588,0.391933,0.39128,0.390627,0.389976,0.389326,0.388677,0.388029,0.387382,0.386736,0.386091,0.385446,0.384803,0.38416,0.383519,0.38288,0.382242,0.381606,0.380972,0.380339,0.379708,0.379079,0.37845,0.377823,0.377196,0.376568,0.375941,0.375313,0.374685,0.374057,0.373429,0.372801,0.372173,0.371545,0.370917,0.370289,0.369661,0.369033,0.368404,0.367776,0.367149,0.366521,0.365895,0.365269,0.364644,0.364019,0.363396,0.362774,0.362154,0.361535,0.360919,0.360305,0.359693,0.359085,0.358478,0.357875,0.357273,0.356675,0.35608,0.355489,0.354903,0.354321,0.353744,0.353173,0.352607,0.352046,0.351491,0.350941,0.350397,0.349859,0.349328,0.348804,0.348286,0.347775,0.34727,0.346773,0.346282,0.345799,0.345323,0.344855,0.344396,0.343945,0.343502,0.343068,0.342643,0.342228,0.341821,0.341425,0.341039,0.340663,0.340297,0.339941,0.339596,0.339262,0.338938,0.338625,0.338323,0.338032,0.337752,0.337484,0.337226,0.336981,0.336746,0.336524,0.336313,0.336115,0.335929,0.335755,0.335594,0.335444,0.335306,0.33518,0.335067,0.334966,0.334879,0.334806,0.334746,0.334702,0.334672,0.334658,0.334658,0.334674,0.334704,0.334751,0.334812,0.334889,0.334981,0.335088,0.335211,0.335348,0.3355,0.335668,0.335851,0.336049,0.336263,0.336492,0.336736,0.336996,0.337271,0.337561,0.337866,0.338186,0.338521,0.33887,0.339233,0.33961,0.340002,0.340407,0.340827,0.341262,0.34171,0.342172,0.342647,0.343134,0.343631,0.34414,0.344659,0.345188,0.345728,0.346279,0.346839,0.347409,0.347989,0.348576,0.349172,0.349774,0.350383,0.350998,0.351618,0.352243,0.352872,0.353505,0.354139,0.354775,0.355411,0.356047,0.356683,0.357316,0.357947,0.358575,0.359197,0.359815,0.360425,0.361027,0.36162,0.362203,0.362776,0.363337,0.363887,0.364425,0.364951,0.365465,0.365967,0.366456,0.366931,0.367393,0.36784,0.368273,0.368692,0.369096,0.369487,0.369865,0.37023,0.370583,0.370925,0.371256,0.371576,0.371886,0.372186,0.372476,0.372758,0.37303,0.373295,0.373553,0.373804,0.374049,0.374287,0.37452,0.374747,0.37497,0.375187,0.3754,0.375608,0.375812,0.376011,0.376205,0.376394,0.376579,0.37676,0.376937,0.37711,0.37728,0.377447,0.377611,0.37777,0.377925,0.378076,0.378222,0.378363,0.378501,0.378636,0.378767,0.378897,0.379024,0.37915,0.379274,0.379397,0.379519,0.379639,0.379759,0.379877,0.379993,0.380108,0.380221,0.380331,0.380439,0.380546,0.380653,0.380759,0.380865,0.380972,0.381081,0.381191,0.381302,0.381414,0.381527,0.38164,0.381755,0.381869,0.381984,0.382097,0.38221,0.382322,0.382434,0.382545,0.382656,0.382768,0.382881,0.382993,0.383106,0.383218,0.383329,0.383439,0.383546,0.383652,0.383756,0.383858,0.383956,0.384053,0.384146,0.384236,0.384324,0.384409,0.384492,0.384571,0.384646,0.384718,0.384784,0.384847,0.384906,0.38496,0.385012,0.385061,0.385107,0.385149,0.385189,0.385224,0.385255,0.385282,0.385304,0.385323,0.385338,0.385349,0.385356,0.38536,0.38536,0.385356,0.385349,0.385339,0.385326,0.385309,0.385289,0.385265,0.385237,0.385204,0.385167,0.385125,0.38508,0.385031,0.384979,0.384925,0.384869,0.384812,0.384754,0.384693,0.384632,0.384569,0.384505,0.38444,0.384374,0.384308,0.384243,0.384177,0.384113,0.384048,0.383985,0.383922,0.38386,0.383799,0.38374,0.383683,0.383626,0.383571,0.383517,0.383464,0.383411,0.383358,0.383306,0.383253,0.3832,0.383146,0.38309,0.383031,0.382969,0.382902,0.382831,0.382753,0.38267,0.382581,0.382487,0.382388,0.382285,0.382178,0.382068,0.381954,0.381837,0.381716,0.381593,0.381468,0.381341,0.381213,0.381085,0.380959,0.380834,0.380711,0.38059,0.38047,0.380353,0.380237,0.380122,0.380008,0.379895,0.379783,0.379671,0.379561,0.379452,0.379344,0.379237,0.37913,0.379022,0.378913,0.378803,0.378692,0.37858,0.378467,0.378353,0.378239,0.378124,0.378007,0.377888,0.377765,0.37764,0.377512,0.37738,0.377245,0.377106,0.376964,0.376816,0.376663,0.376503,0.376335,0.376161,0.37598,0.375793,0.375602,0.375406,0.375208,0.375006,0.374802,0.374596,0.374386,0.374174,0.373958,0.373738,0.373514,0.373287,0.373056,0.372822,0.372587,0.37235,0.372112,0.371873,0.371631,0.371387,0.37114,0.370889,0.370634,0.370377,0.370118,0.369857,0.369595,0.369331,0.369067,0.368801,0.368534,0.368265,0.367995,0.367725,0.367454,0.367184,0.366914,0.366644,0.366375,0.366108,0.365842,0.365578,0.365317,0.365058,0.3648,0.364545,0.364291,0.364037,0.363786,0.363536,0.363289,0.363045,0.362805,0.362568,0.362336,0.362108,0.361884,0.361664,0.361448,0.361235,0.361024,0.360816,0.36061,0.360405,0.360203,0.360003,0.359807,0.359614,0.359425,0.359239,0.359057,0.358878,0.3587,0.358524,0.358349,0.358174,0.358,0.357827,0.357655,0.357484,0.357315,0.357147,0.356981,0.356817,0.356657,0.356499,0.356345,0.356195,0.35605,0.355912,0.355781,0.355657,0.355541,0.355434,0.355334,0.355244,0.355162,0.355088,0.355023,0.354968,0.354923,0.354888,0.354862,0.354848,0.354845,0.354853,0.354875,0.35491,0.354958,0.355021,0.355099,0.355191,0.355299,0.355422,0.355563,0.355722,0.355899,0.356095,0.356311,0.356546,0.356802,0.357077,0.357372,0.357687,0.358022,0.358376,0.358749,0.359141,0.359552,0.359982,0.360432,0.3609,0.361389,0.361896,0.362422,0.362965,0.363526,0.364103,0.364696,0.365304,0.365928,0.366567,0.367223,0.367896,0.368587,0.369295,0.370019,0.37076,0.371515,0.372284,0.373064,0.373856,0.374659,0.37547,0.376289,0.377115,0.377948,0.378786,0.379629,0.380477,0.38133,0.382188,0.38305,0.383914,0.384782,0.38565,0.386518,0.387385,0.38825,0.389113,0.389973,0.39083,0.391685,0.392538,0.393389,0.394238,0.395086,0.395934,0.39678,0.397625,0.398468,0.399308,0.400144,0.400973,0.401797,0.402613,0.403422,0.404224,0.405018,0.405805,0.406583,0.407353,0.408113,0.408864,0.409605,0.410335,0.411053,0.411758,0.412447,0.413118,0.413769,0.4144,0.415011,0.4156,0.416166,0.416709,0.417227,0.417719,0.418183,0.418618,0.419024,0.419403,0.419756,0.420087,0.420398,0.42069,0.420966,0.421226,0.421471,0.421701,0.421916,0.422117,0.422303,0.422477,0.422638,0.42279,0.422934,0.423072,0.423209,0.423345,0.423484,0.423627,0.423777,0.423934,0.4241,0.424277,0.424464,0.424663,0.424874,0.425095,0.425327,0.425572,0.425829,0.426101,0.42639,0.426697,0.427023,0.427369,0.427735,0.428122,0.42853,0.42896,0.42941,0.429882,0.430373,0.43088,0.431401,0.431933,0.432472,0.433017,0.433567,0.434123,0.434685,0.435254,0.43583,0.436415,0.437006,0.437605,0.438209,0.438818,0.439432,0.440048,0.440664,0.441279,0.441888,0.442488,0.443074,0.443641,0.444185,0.444701,0.445183,0.445627,0.446026,0.446375,0.446669,0.446905,0.44708,0.447193,0.447245,0.447239,0.447177,0.447063,0.446903,0.446704,0.446473,0.446219,0.445953,0.445682,0.445414,0.445157,0.444914,0.444689,0.444482,0.444295,0.444129,0.443985,0.443865,0.443771,0.443704,0.443665,0.443654,0.443669,0.443708,0.443767,0.443844,0.443934,0.444035,0.444144,0.44426,0.444383,0.444511,0.444646,0.444786,0.444931,0.445079,0.445231,0.445384,0.445537,0.445691,0.445845,0.446,0.446157,0.446315,0.446475,0.44664,0.44681,0.446986,0.447169,0.447359,0.447556,0.447757,0.447962,0.44817,0.448379,0.448588,0.448799,0.449011,0.449224,0.449439,0.449655,0.44987,0.450083,0.450295,0.450501,0.450702,0.450893,0.451072,0.451235,0.451379,0.4515,0.451592,0.451653,0.45168,0.451672,0.451631,0.451556,0.451449,0.451311,0.451143,0.450946,0.450723,0.450476,0.45021,0.449932,0.449648,0.449362,0.449081,0.448807,0.448543,0.448292,0.448054,0.44783,0.447621,0.447427,0.447249,0.447086,0.446938,0.446806,0.446687,0.446581,0.446487,0.446403,0.446327,0.44626,0.446199,0.446144,0.446094,0.44605,0.446007,0.445966,0.445924,0.445881,0.445836,0.445791,0.445746,0.445702,0.44566,0.44562,0.445583,0.445549,0.445516,0.445485,0.445458,0.445434,0.445416,0.445403,0.445395,0.445393,0.445398,0.445408,0.445425,0.445449,0.44548,0.445517,0.445562,0.445613,0.445669,0.44573,0.445796,0.445865,0.445936,0.446009,0.446083,0.446157,0.446231,0.446304,0.446377,0.446449,0.446518,0.446585,0.446651,0.446715,0.446779,0.446846,0.446915,0.446988,0.447064,0.447145,0.447229,0.447316,0.447406,0.447499,0.447595,0.447694,0.447796,0.447902,0.448012,0.448127,0.448247,0.448372,0.448503,0.448642,0.448788,0.448945,0.449113,0.449294,0.449488,0.449693,0.449909,0.450136,0.450373,0.45062,0.450877,0.451144,0.451419,0.451702,0.451991,0.452286,0.452584,0.452887,0.453194,0.453506,0.453824,0.454149,0.454484,0.454828,0.455181,0.455544,0.455913,0.456288,0.456667,0.457049,0.457434,0.457822,0.458216,0.458617,0.459026,0.459443,0.459869,0.460303,0.460743,0.461191,0.461646,0.46211,0.462583,0.463066,0.463558,0.464061,0.464575,0.4651,0.465636,0.466181,0.466737,0.467304,0.467882,0.468471,0.469073,0.469685,0.470306,0.470934,0.471565,0.4722,0.472838,0.47348,0.474127,0.474782,0.475447,0.476121,0.476805,0.477498,0.478202,0.478918,0.479648,0.480393,0.481152,0.481926,0.482713,0.483508,0.484311,0.485119,0.485929,0.486741,0.487555,0.488369,0.489185,0.490001,0.490816,0.491628,0.492436,0.493241,0.494043,0.494844,0.495644,0.496445,0.497248,0.498052,0.498858,0.499667,0.50048,0.501296,0.502117,0.502942,0.503772,0.504608,0.50545,0.506298,0.50715,0.508004,0.508859,0.509713,0.510565,0.511415,0.512263,0.513109,0.513955,0.514801,0.515649,0.516497,0.517345,0.518192,0.519036,0.519876,0.520711,0.521541,0.522366,0.523189,0.524008,0.524826,0.525639,0.526447,0.527247,0.528034,0.528807,0.529563,0.530301,0.531022,0.531728,0.532423,0.53311,0.533794,0.534476,0.53516,0.535845,0.53653,0.537212,0.537888,0.538555,0.539212,0.539857,0.540491,0.541116,0.541734,0.542347,0.542955,0.543557,0.54415,0.54473,0.545295,0.545844,0.546376,0.546895,0.547402,0.5479,0.548392,0.548879,0.549359,0.549831,0.550293,0.550742,0.551174,0.55159,0.551989,0.552372,0.552739,0.553092,0.553428,0.553748,0.554048,0.554327,0.554584,0.554816,0.555025,0.55521,0.555374,0.555517,0.555642,0.555749,0.555841,0.555919,0.555983,0.556035,0.556074,0.556102,0.556117,0.556119,0.556108,0.556081,0.556037,0.555971,0.555971
,F260045,CIAT606,OT-002 (2026),Brachiaria decumbens,Grasses,,0.898387,0.899643,0.900821,0.901925,0.902959,0.903929,0.904839,0.905694,0.906493,0.907241,0.907938,0.908585,0.909183,0.909734,0.910238,0.910701,0.911122,0.911506,0.911856,0.912176,0.912467,0.912732,0.912973,0.913189,0.913382,0.91355,0.913696,0.913817,0.913912,0.913984,0.914034,0.914062,0.914069,0.914057,0.91403,0.913988,0.913931,0.91386,0.913774,0.913675,0.913561,0.91343,0.91328,0.913112,0.912924,0.912715,0.912488,0.912242,0.911975,0.91169,0.911387,0.911068,0.910735,0.910388,0.910031,0.909663,0.909287,0.908901,0.908507,0.908108,0.907701,0.907288,0.906869,0.906442,0.906011,0.905573,0.90513,0.904686,0.904237,0.903785,0.903332,0.902878,0.902423,0.901969,0.901515,0.901061,0.900604,0.900146,0.899688,0.899235,0.898788,0.898349,0.897918,0.8975,0.897098,0.896714,0.896348,0.896003,0.895675,0.895363,0.895067,0.894786,0.894518,0.894262,0.89402,0.893787,0.893562,0.893342,0.893128,0.892919,0.892714,0.892512,0.892316,0.892127,0.891942,0.89176,0.891583,0.89141,0.891238,0.891069,0.8909,0.890727,0.890549,0.890371,0.890187,0.889995,0.889791,0.889577,0.889352,0.889116,0.888871,0.888614,0.888342,0.888053,0.887746,0.887419,0.887072,0.886704,0.886313,0.885899,0.885462,0.885001,0.884517,0.88401,0.883481,0.882933,0.882367,0.88178,0.881175,0.880553,0.879914,0.879262,0.878596,0.877916,0.877227,0.876528,0.87582,0.875101,0.874369,0.873625,0.872867,0.872097,0.871315,0.870522,0.869724,0.868921,0.868112,0.867296,0.866473,0.865646,0.864815,0.863983,0.863152,0.86232,0.861487,0.860651,0.859812,0.858967,0.858117,0.857261,0.856397,0.855524,0.854639,0.85374,0.852823,0.85189,0.850944,0.849982,0.849003,0.848007,0.846992,0.845957,0.844901,0.843823,0.842721,0.841594,0.840442,0.839263,0.838055,0.836816,0.835545,0.834242,0.832909,0.831544,0.830145,0.828709,0.827235,0.825719,0.824165,0.822572,0.82094,0.819268,0.817558,0.815805,0.814014,0.812183,0.810314,0.808407,0.806462,0.804479,0.802459,0.800402,0.798309,0.79618,0.794016,0.791817,0.789584,0.787319,0.785019,0.782689,0.780331,0.777945,0.775534,0.773099,0.770642,0.768163,0.765664,0.763151,0.760625,0.758092,0.755554,0.753013,0.750473,0.747939,0.745413,0.7429,0.740404,0.737927,0.735473,0.733046,0.73065,0.728289,0.725967,0.723689,0.721458,0.719278,0.717154,0.71509,0.71309,0.711156,0.709292,0.707502,0.705788,0.704152,0.702595,0.701119,0.699725,0.698412,0.697183,0.696034,0.694967,0.693978,0.693067,0.692229,0.691463,0.690764,0.690129,0.689552,0.689031,0.688559,0.688131,0.68774,0.687381,0.687046,0.686731,0.686428,0.68613,0.685832,0.685526,0.685207,0.684868,0.684504,0.68411,0.683683,0.683217,0.68271,0.68216,0.681565,0.680924,0.680236,0.6795,0.678718,0.677891,0.677022,0.676112,0.675165,0.674183,0.67317,0.67213,0.671068,0.669986,0.668889,0.667782,0.666671,0.665557,0.664447,0.663342,0.662246,0.661164,0.660099,0.659055,0.658035,0.657038,0.656068,0.655126,0.654216,0.653338,0.652492,0.651678,0.650896,0.650147,0.64943,0.648744,0.648089,0.647463,0.646865,0.646294,0.645748,0.645226,0.644726,0.644247,0.643787,0.643343,0.642916,0.642502,0.642102,0.641711,0.641331,0.640959,0.640595,0.640238,0.639887,0.639542,0.639203,0.638869,0.638538,0.638212,0.637889,0.63757,0.637254,0.636942,0.636634,0.636328,0.636026,0.635728,0.635435,0.635149,0.63487,0.634599,0.634337,0.634086,0.633846,0.633619,0.633406,0.633208,0.633025,0.632858,0.63271,0.632583,0.63248,0.632402,0.63235,0.632327,0.632334,0.632371,0.632437,0.632536,0.632667,0.632832,0.633034,0.633273,0.633551,0.633869,0.634228,0.634629,0.635072,0.635558,0.636089,0.636662,0.63728,0.63794,0.638641,0.639385,0.640172,0.641001,0.641874,0.64279,0.643745,0.644738,0.645767,0.64683,0.647925,0.649049,0.6502,0.651374,0.652569,0.653781,0.655006,0.656241,0.657481,0.658722,0.659961,0.661192,0.662412,0.663617,0.664804,0.665969,0.667106,0.668212,0.669285,0.670319,0.671312,0.672262,0.673166,0.674021,0.674826,0.675578,0.676277,0.676921,0.677509,0.678042,0.678518,0.678939,0.679304,0.679616,0.679874,0.680082,0.68024,0.68035,0.680417,0.68044,0.680423,0.680368,0.680279,0.680158,0.68001,0.679838,0.679647,0.679439,0.679221,0.678994,0.678763,0.678531,0.678305,0.678086,0.677881,0.677695,0.677532,0.677395,0.677288,0.677217,0.677186,0.6772,0.677262,0.677375,0.677543,0.677771,0.67806,0.678413,0.678836,0.679328,0.679892,0.680532,0.681247,0.682039,0.682911,0.68386,0.684887,0.685993,0.687176,0.688435,0.689771,0.69118,0.692662,0.694214,0.695834,0.697519,0.699267,0.701077,0.702944,0.704865,0.706838,0.708861,0.710931,0.713044,0.715199,0.717394,0.719628,0.721899,0.724206,0.726549,0.728926,0.731337,0.733783,0.736264,0.738779,0.74133,0.743917,0.746541,0.749201,0.751897,0.754628,0.757394,0.760195,0.763028,0.765891,0.768782,0.771699,0.774636,0.77759,0.780555,0.783525,0.786494,0.789455,0.792399,0.795321,0.798208,0.801052,0.803842,0.806567,0.809218,0.811781,0.814245,0.816597,0.818827,0.820923,0.822872,0.824664,0.826288,0.827734,0.828991,0.830051,0.830906,0.831548,0.831971,0.83217,0.832141,0.831878,0.83138,0.830645,0.829673,0.828463,0.82702,0.825345,0.82344,0.821312,0.818964,0.816404,0.813637,0.810672,0.807515,0.804176,0.800663,0.796984,0.793149,0.789166,0.785046,0.780797,0.776427,0.771946,0.767361,0.762682,0.757916,0.753071,0.748153,0.743171,0.73813,0.733036,0.727894,0.722708,0.717484,0.712223,0.706931,0.701608,0.696258,0.69088,0.685477,0.680049,0.674597,0.66912,0.663619,0.658092,0.65254,0.64696,0.641353,0.635717,0.630051,0.624355,0.618629,0.612872,0.607085,0.601267,0.59542,0.589545,0.583644,0.577719,0.571772,0.565808,0.559828,0.553839,0.547844,0.541848,0.535855,0.529871,0.523902,0.517953,0.51203,0.506139,0.500287,0.494478,0.488719,0.483016,0.477373,0.471796,0.46629,0.46086,0.45551,0.450243,0.445064,0.439975,0.434981,0.430081,0.425278,0.420573,0.415966,0.411458,0.407048,0.402736,0.398521,0.394403,0.390379,0.386447,0.382607,0.378855,0.375189,0.371607,0.368106,0.364683,0.361337,0.358064,0.354861,0.351726,0.348656,0.34565,0.342704,0.339817,0.336986,0.334211,0.331489,0.328819,0.3262,0.32363,0.321109,0.318636,0.316209,0.313829,0.311495,0.309206,0.306961,0.304761,0.302605,0.300493,0.298424,0.296399,0.294417,0.292478,0.290582,0.28873,0.28692,0.285153,0.283428,0.281744,0.280102,0.2785,0.276939,0.275417,0.273935,0.272491,0.271086,0.269718,0.268386,0.26709,0.265829,0.264601,0.263406,0.262242,0.26111,0.260006,0.258931,0.257882,0.256859,0.25586,0.254884,0.253929,0.252995,0.252079,0.25118,0.250297,0.249428,0.248571,0.247726,0.24689,0.246063,0.245243,0.244429,0.24362,0.242813,0.242009,0.241206,0.240403,0.239601,0.238797,0.237993,0.237187,0.236379,0.23557,0.234759,0.233945,0.23313,0.232312,0.231493,0.230672,0.22985,0.229027,0.228204,0.227382,0.22656,0.22574,0.224922,0.224107,0.223296,0.222489,0.221687,0.220891,0.220102,0.21932,0.218545,0.217778,0.21702,0.216272,0.215533,0.214805,0.214087,0.21338,0.212683,0.211998,0.211324,0.21066,0.210008,0.209367,0.208737,0.208118,0.20751,0.206912,0.206325,0.205748,0.205182,0.204625,0.204078,0.20354,0.203012,0.202491,0.201978,0.201473,0.200975,0.200485,0.2,0.199522,0.19905,0.198583,0.198121,0.197664,0.197211,0.196763,0.196318,0.195877,0.19544,0.195006,0.194575,0.194147,0.193722,0.193299,0.192878,0.19246,0.192044,0.19163,0.191219,0.190809,0.190402,0.189996,0.189592,0.189189,0.188788,0.188389,0.187991,0.187594,0.187198,0.186803,0.186409,0.186017,0.185624,0.185233,0.184843,0.184453,0.184065,0.183678,0.183293,0.18291,0.182528,0.182148,0.181771,0.181396,0.181023,0.180653,0.180286,0.179922,0.17956,0.179202,0.178847,0.178494,0.178145,0.177799,0.177456,0.177115,0.176778,0.176443,0.176111,0.175781,0.175454,0.175129,0.174806,0.174486,0.174167,0.173851,0.173536,0.173223,0.172912,0.172602,0.172293,0.171986,0.171679,0.171374,0.17107,0.170767,0.170465,0.170165,0.169865,0.169567,0.169271,0.168975,0.168681,0.168388,0.168096,0.167805,0.167515,0.167227,0.16694,0.166654,0.166368,0.166083,0.1658,0.165517,0.165235,0.164954,0.164675,0.164398,0.164121,0.163847,0.163573,0.163301,0.16303,0.162761,0.162493,0.162226,0.16196,0.161696,0.161434,0.161173,0.160913,0.160655,0.160398,0.160144,0.159891,0.159639,0.159389,0.15914,0.158892,0.158645,0.1584,0.158156,0.157914,0.157674,0.157435,0.157197,0.156961,0.156725,0.156492,0.156259,0.156028,0.155798,0.15557,0.155344,0.155119,0.154896,0.154675,0.154455,0.154237,0.15402,0.153804,0.153591,0.153378,0.153166,0.152956,0.152747,0.152537,0.152328,0.15212,0.151913,0.151708,0.151504,0.151301,0.151099,0.150899,0.1507,0.150502,0.150305,0.15011,0.149918,0.149726,0.149536,0.149348,0.149162,0.148977,0.148794,0.14861,0.148427,0.148245,0.148063,0.147881,0.147701,0.147521,0.147342,0.147164,0.146988,0.146813,0.146639,0.146467,0.146295,0.146125,0.145956,0.145789,0.145622,0.145457,0.145293,0.145132,0.144971,0.144811,0.144652,0.144493,0.144336,0.14418,0.144025,0.143871,0.143718,0.143566,0.143414,0.143264,0.143114,0.142966,0.142818,0.14267,0.142525,0.14238,0.142236,0.142093,0.141951,0.141809,0.141669,0.14153,0.141392,0.141254,0.141117,0.140981,0.140845,0.14071,0.140576,0.140442,0.140309,0.140177,0.140045,0.139914,0.139783,0.139653,0.139524,0.139397,0.13927,0.139143,0.139018,0.138893,0.138769,0.138644,0.13852,0.138397,0.138273,0.13815,0.138026,0.137903,0.137779,0.137655,0.137532,0.137408,0.137285,0.137161,0.137037,0.136913,0.136788,0.136663,0.136539,0.136413,0.136288,0.136163,0.136038,0.135913,0.135788,0.135663,0.135538,0.135412,0.135287,0.135162,0.135037,0.134912,0.134786,0.134661,0.134536,0.134412,0.134287,0.134163,0.134039,0.133915,0.133792,0.133668,0.133545,0.133422,0.133299,0.133176,0.133053,0.13293,0.132808,0.132686,0.132564,0.132443,0.132322,0.132201,0.132081,0.131961,0.131841,0.131722,0.131604,0.131485,0.131367,0.13125,0.131132,0.131015,0.130899,0.130783,0.130667,0.130553,0.130439,0.130326,0.130213,0.130102,0.129991,0.129882,0.129774,0.129667,0.129561,0.129455,0.129351,0.129248,0.129146,0.129044,0.128944,0.128846,0.128749,0.128653,0.128558,0.128465,0.128373,0.128283,0.128195,0.128109,0.128023,0.12794,0.127857,0.127776,0.127697,0.127618,0.127541,0.127466,0.127391,0.127318,0.127246,0.127175,0.127105,0.127036,0.126968,0.126901,0.126836,0.126772,0.126709,0.126648,0.126588,0.126529,0.126472,0.126416,0.126362,0.126309,0.126257,0.126206,0.126158,0.12611,0.126064,0.126019,0.125976,0.125933,0.125891,0.125851,0.125811,0.125772,0.125734,0.125696,0.125659,0.125622,0.125586,0.12555,0.125514,0.125478,0.125443,0.125407,0.125371,0.125335,0.125299,0.125262,0.125225,0.125187,0.125148,0.125109,0.12507,0.12503,0.12499,0.124949,0.124908,0.124866,0.124822,0.124779,0.124734,0.124689,0.124643,0.124596,0.124549,0.124501,0.124452,0.124402,0.124352,0.124301,0.12425,0.124198,0.124145,0.124092,0.124038,0.123984,0.12393,0.123875,0.12382,0.123764,0.123707,0.12365,0.123591,0.123533,0.123474,0.123414,0.123355,0.123295,0.123235,0.123175,0.123114,0.123053,0.122991,0.12293,0.122868,0.122806,0.122744,0.122683,0.122621,0.122558,0.122496,0.122434,0.122371,0.122309,0.122247,0.122184,0.122122,0.12206,0.121997,0.121935,0.121872,0.121809,0.121746,0.121683,0.12162,0.121557,0.121494,0.12143,0.121366,0.121303,0.121238,0.121174,0.12111,0.121045,0.12098,0.120915,0.12085,0.120784,0.120718,0.120652,0.120586,0.120519,0.120452,0.120384,0.120317,0.120249,0.120181,0.120113,0.120045,0.119976,0.119908,0.11984,0.119771,0.119703,0.119634,0.119566,0.119497,0.119428,0.119359,0.119291,0.119222,0.119153,0.119084,0.119016,0.118947,0.118878,0.11881,0.118742,0.118675,0.118607,0.118541,0.118474,0.118407,0.11834,0.118273,0.118207,0.11814,0.118074,0.118008,0.117942,0.117877,0.117811,0.117745,0.11768,0.117615,0.11755,0.117486,0.117422,0.117358,0.117295,0.117232,0.117168,0.117105,0.117043,0.11698,0.116918,0.116857,0.116797,0.116737,0.116677,0.116618,0.116558,0.116499,0.11644,0.116381,0.116322,0.116263,0.116204,0.116145,0.116086,0.116027,0.115969,0.11591,0.115851,0.115792,0.115734,0.115676,0.115618,0.11556,0.115502,0.115444,0.115386,0.115328,0.11527,0.115212,0.115153,0.115095,0.115036,0.114977,0.114918,0.114858,0.114799,0.114739,0.114679,0.114618,0.114558,0.114498,0.114438,0.114378,0.114318,0.114258,0.114198,0.114139,0.11408,0.114021,0.113962,0.113904,0.113846,0.113788,0.11373,0.113672,0.113614,0.113557,0.113501,0.113444,0.113388,0.113334,0.113279,0.113226,0.113173,0.11312,0.113068,0.113016,0.112965,0.112914,0.112864,0.112814,0.112765,0.112716,0.112667,0.112618,0.112568,0.112519,0.112471,0.112423,0.112376,0.112328,0.112281,0.112233,0.112185,0.112137,0.112088,0.112037,0.111986,0.111933,0.111879,0.111823,0.111766,0.111707,0.111645,0.111582,0.111516,0.111449,0.111381,0.111311,0.11124,0.111168,0.111096,0.111023,0.11095,0.110878,0.110805,0.110734,0.110663,0.110593,0.111982,0.111939,0.111898,0.111858,0.11182,0.111783,0.111747,0.111712,0.111679,0.111646,0.111615,0.111586,0.111559,0.111533,0.11151,0.111488,0.111467,0.111448,0.111429,0.111411,0.111393,0.111376,0.111359,0.111342,0.111325,0.111308,0.111293,0.111279,0.111266,0.111256,0.111248,0.111242,0.111238,0.111236,0.111237,0.111239,0.111243,0.111249,0.111257,0.111267,0.111279,0.111294,0.111312,0.111333,0.111358,0.111387,0.111419,0.111455,0.111495,0.111539,0.111587,0.111639,0.111696,0.111756,0.11182,0.111889,0.111961,0.112038,0.112118,0.112202,0.11229,0.11238,0.112473,0.11257,0.112669,0.112772,0.112877,0.112985,0.113095,0.113208,0.113322,0.113438,0.113555,0.113673,0.113792,0.113911,0.114031,0.114151,0.114272,0.114394,0.114517,0.114641,0.114766,0.114894,0.115023,0.115154,0.115287,0.115422,0.115559,0.115697,0.115838,0.11598,0.116123,0.116267,0.116413,0.11656,0.116708,0.116858,0.117011,0.117165,0.117323,0.117483,0.117647,0.117813,0.117983,0.118155,0.11833,0.118507,0.118685,0.118866,0.119047,0.11923,0.119413,0.119598,0.119783,0.119968,0.120154,0.12034,0.120527,0.120714,0.1209,0.121087,0.121272,0.121456,0.121638,0.121819,0.121997,0.122173,0.122346,0.122516,0.122684,0.122848,0.12301,0.123169,0.123326,0.123482,0.123635,0.123786,0.123936,0.124084,0.124231,0.124376,0.124521,0.124665,0.124808,0.124951,0.125095,0.125239,0.125384,0.125531,0.125679,0.125829,0.12598,0.126134,0.126289,0.126446,0.126605,0.126764,0.126924,0.127083,0.127243,0.127402,0.12756,0.127717,0.127872,0.128025,0.128176,0.128324,0.128469,0.128611,0.128749,0.128883,0.129013,0.129138,0.129258,0.129372,0.129482,0.129585,0.129682,0.129774,0.129859,0.129939,0.130012,0.130081,0.130145,0.130204,0.130258,0.130309,0.130356,0.130399,0.130438,0.130474,0.130506,0.130535,0.130562,0.130586,0.130608,0.130627,0.130644,0.13066,0.130674,0.130686,0.130697,0.130707,0.130716,0.130724,0.13073,0.130735,0.130738,0.130738,0.130737,0.130733,0.130725,0.130715,0.130702,0.130685,0.130664,0.130638,0.130608,0.130573,0.130533,0.130488,0.130439,0.130384,0.130324,0.13026,0.130191,0.130116,0.130036,0.129951,0.129861,0.129766,0.129666,0.129561,0.129451,0.129337,0.129217,0.129094,0.128966,0.128835,0.1287,0.128561,0.128421,0.128278,0.128133,0.127986,0.127839,0.12769,0.127541,0.127392,0.127243,0.127094,0.126946,0.126797,0.12665,0.126503,0.126356,0.126211,0.126066,0.125922,0.125779,0.125638,0.125498,0.125358,0.125221,0.125084,0.124949,0.124814,0.124681,0.124549,0.124417,0.124287,0.124158,0.12403,0.123904,0.12378,0.123657,0.123535,0.123415,0.123295,0.123177,0.123059,0.122943,0.122827,0.122712,0.122599,0.122486,0.122376,0.122266,0.122159,0.122052,0.121948,0.121845,0.121743,0.121643,0.121544,0.121447,0.121351,0.121257,0.121164,0.121072,0.120983,0.120894,0.120807,0.120722,0.120639,0.120558,0.120479,0.120402,0.120328,0.120256,0.120186,0.120119,0.120054,0.119991,0.119931,0.119872,0.119815,0.11976,0.119707,0.119655,0.119606,0.119559,0.119513,0.119469,0.119427,0.119385,0.119345,0.119305,0.119266,0.119228,0.11919,0.119152,0.119114,0.119077,0.11904,0.119002,0.118965,0.118928,0.118889,0.11885,0.118811,0.11877,0.118729,0.118686,0.118643,0.118598,0.118552,0.118505,0.118457,0.118407,0.118357,0.118305,0.118252,0.118198,0.118143,0.118087,0.11803,0.117971,0.117912,0.117851,0.11779,0.117728,0.117665,0.117602,0.117539,0.117475,0.117412,0.117349,0.117285,0.117222,0.117159,0.117097,0.117035,0.116974,0.116913,0.116852,0.116793,0.116734,0.116675,0.116618,0.116562,0.116508,0.116455,0.116404,0.116355,0.116308,0.116262,0.116218,0.116175,0.116134,0.116095,0.116057,0.11602,0.115985,0.115952,0.11592,0.115889,0.11586,0.115833,0.115808,0.115785,0.115764,0.115745,0.115729,0.115715,0.115703,0.115693,0.115685,0.115679,0.115676,0.115675,0.115676,0.115679,0.115684,0.115691,0.1157,0.115712,0.115725,0.115741,0.115758,0.115778,0.115801,0.115826,0.115854,0.115884,0.115917,0.115953,0.115991,0.116032,0.116075,0.116121,0.11617,0.116221,0.116276,0.116333,0.116393,0.116456,0.116523,0.116592,0.116665,0.116742,0.116822,0.116906,0.116994,0.117085,0.117181,0.117281,0.117385,0.117493,0.117606,0.117722,0.117844,0.117969,0.118099,0.118232,0.11837,0.118512,0.118657,0.118807,0.118961,0.119119,0.119281,0.119448,0.119619,0.119795,0.119976,0.120161,0.120351,0.120546,0.120745,0.12095,0.12116,0.121375,0.121595,0.12182,0.122051,0.122287,0.122527,0.122773,0.123023,0.123278,0.123538,0.123802,0.124072,0.124345,0.124624,0.124906,0.125193,0.125483,0.125778,0.126076,0.126377,0.126682,0.12699,0.127301,0.127614,0.12793,0.128248,0.128568,0.128891,0.129215,0.129542,0.129869,0.130199,0.13053,0.130863,0.131197,0.131533,0.13187,0.132209,0.132548,0.132888,0.133228,0.133569,0.133909,0.134249,0.134588,0.134925,0.135261,0.135595,0.135925,0.136253,0.136577,0.136898,0.137214,0.137527,0.137835,0.138138,0.138436,0.138728,0.139015,0.139296,0.139571,0.13984,0.140103,0.14036,0.14061,0.140855,0.141094,0.141328,0.141556,0.141779,0.141997,0.142211,0.142422,0.14263,0.142836,0.143042,0.143247,0.143453,0.143662,0.143873,0.144088,0.144309,0.144535,0.144768,0.145009,0.145258,0.145515,0.145783,0.14606,0.146347,0.146645,0.146954,0.147273,0.147604,0.147945,0.148296,0.148659,0.149031,0.149414,0.149808,0.150211,0.150625,0.15105,0.151485,0.15193,0.152387,0.152854,0.153332,0.153821,0.154321,0.154832,0.155354,0.155888,0.156433,0.15699,0.157561,0.158144,0.158741,0.159352,0.159977,0.160617,0.161271,0.16194,0.162623,0.163321,0.164033,0.164759,0.1655,0.166254,0.167023,0.167805,0.168602,0.169412,0.170235,0.171071,0.171919,0.17278,0.173652,0.174535,0.175429,0.176333,0.177247,0.17817,0.179102,0.180042,0.180989,0.181944,0.182906,0.183874,0.184848,0.185828,0.186813,0.187802,0.188796,0.189794,0.190795,0.191798,0.192803,0.193809,0.194814,0.19582,0.196823,0.197825,0.198823,0.199818,0.200808,0.201793,0.202772,0.203744,0.204708,0.205664,0.20661,0.207545,0.20847,0.209382,0.210282,0.211168,0.21204,0.212898,0.21374,0.214567,0.215378,0.216172,0.216949,0.217709,0.218452,0.219177,0.219886,0.220576,0.22125,0.221906,0.222545,0.223168,0.223773,0.224362,0.224934,0.22549,0.22603,0.226555,0.227065,0.22756,0.228042,0.228509,0.228964,0.229405,0.229834,0.230251,0.230657,0.231051,0.231434,0.231807,0.232169,0.232522,0.232866,0.2332,0.233525,0.233842,0.234151,0.234452,0.234745,0.235032,0.235312,0.235586,0.235854,0.236116,0.236372,0.236623,0.23687,0.237111,0.237348,0.23758,0.237809,0.238034,0.238255,0.238474,0.238689,0.238901,0.239111,0.239318,0.239522,0.239723,0.239921,0.240115,0.240306,0.240493,0.240676,0.240856,0.241031,0.241201,0.241368,0.24153,0.241687,0.24184,0.241987,0.24213,0.242268,0.242401,0.242529,0.242651,0.242769,0.242881,0.242989,0.243091,0.243189,0.243281,0.243368,0.243451,0.243528,0.243601,0.243668,0.243732,0.24379,0.243845,0.243895,0.243942,0.243984,0.244023,0.244059,0.24409,0.244118,0.244143,0.244165,0.244184,0.2442,0.244213,0.244224,0.244233,0.244239,0.244244,0.244246,0.244246,0.244245,0.244242,0.244238,0.244232,0.244224,0.244214,0.244203,0.244189,0.244174,0.244156,0.244135,0.244113,0.244087,0.244059,0.244028,0.243994,0.243957,0.243916,0.243873,0.243826,0.243776,0.243723,0.243667,0.243608,0.243547,0.243483,0.243416,0.243346,0.243273,0.243197,0.243117,0.243034,0.242948,0.242858,0.242765,0.242668,0.242567,0.242463,0.242355,0.242243,0.242127,0.242007,0.241884,0.241757,0.241627,0.241494,0.241358,0.241219,0.241078,0.240934,0.240787,0.240638,0.240486,0.240331,0.240174,0.240015,0.239853,0.239689,0.239522,0.239353,0.239182,0.239009,0.238834,0.238657,0.238479,0.238299,0.238119,0.237938,0.237757,0.237576,0.237394,0.237214,0.237033,0.236854,0.236675,0.236498,0.236322,0.236149,0.235977,0.235807,0.235639,0.235474,0.23531,0.235149,0.23499,0.234833,0.234678,0.234525,0.234375,0.234228,0.234084,0.233943,0.233805,0.233671,0.23354,0.233413,0.23329,0.233171,0.233055,0.232942,0.232833,0.232726,0.232622,0.23252,0.232421,0.232324,0.23223,0.232138,0.232048,0.231961,0.231876,0.231793,0.231712,0.231632,0.231553,0.231474,0.231397,0.23132,0.231243,0.231166,0.231089,0.231013,0.230936,0.23086,0.230784,0.230708,0.230632,0.230557,0.230481,0.230406,0.230332,0.230257,0.230183,0.23011,0.230038,0.229966,0.229896,0.229827,0.22976,0.229694,0.229631,0.229569,0.229509,0.229452,0.229397,0.229344,0.229294,0.229246,0.229201,0.229159,0.229119,0.229083,0.22905,0.229019,0.228991,0.228966,0.228943,0.228923,0.228905,0.22889,0.228876,0.228865,0.228856,0.228849,0.228843,0.228838,0.228833,0.228829,0.228825,0.228821,0.228818,0.228814,0.228811,0.228809,0.228807,0.228806,0.228805,0.228803,0.228802,0.228799,0.228796,0.22879,0.228783,0.228775,0.228765,0.228753,0.228739,0.228724,0.228706,0.228686,0.228663,0.228638,0.228609,0.228576,0.228539,0.228498,0.228453,0.228403,0.228349,0.228289,0.228225,0.228157,0.228083,0.228005,0.227922,0.227834,0.227741,0.227643,0.22754,0.227432,0.227318,0.227199,0.227075,0.226947,0.226814,0.226677,0.226536,0.226391,0.226242,0.226089,0.225933,0.225774,0.225611,0.225445,0.225277,0.225107,0.224934,0.22476,0.224583,0.224405,0.224224,0.224042,0.223857,0.223671,0.223484,0.223295,0.223105,0.222915,0.222724,0.222533,0.222342,0.222151,0.221961,0.221771,0.221582,0.221393,0.221206,0.22102,0.220835,0.220652,0.220471,0.220292,0.220114,0.219939,0.219765,0.219592,0.219421,0.219251,0.219082,0.218914,0.218745,0.218578,0.21841,0.218242,0.218075,0.217908,0.217741,0.217573,0.217406,0.217238,0.217071,0.216903,0.216734,0.216566,0.216397,0.216228,0.21606,0.215892,0.215726,0.215561,0.215397,0.215235,0.215074,0.214915,0.214759,0.214604,0.214452,0.214301,0.214154,0.214008,0.213865,0.213724,0.213584,0.213446,0.21331,0.213175,0.213043,0.212912,0.212784,0.212659,0.212536,0.212417,0.2123,0.212187,0.212076,0.21197,0.211866,0.211766,0.21167,0.211577,0.211488,0.211402,0.211321,0.211244,0.211171,0.211102,0.211037,0.210976,0.21092,0.210868,0.21082,0.210777,0.210738,0.210704,0.210675,0.210649,0.210629,0.210613,0.210602,0.210595,0.210594,0.210598,0.210607,0.210623,0.210645,0.210673,0.210709,0.210751,0.210802,0.21086,0.210927,0.211003,0.211087,0.211181,0.211284,0.211397,0.211518,0.211649,0.211788,0.211935,0.21209,0.212253,0.212422,0.212598,0.212779,0.212966,0.213157,0.213353,0.213553,0.213758,0.213966,0.214178,0.214393,0.214611,0.214833,0.215058,0.215287,0.215519,0.215755,0.215994,0.216238,0.216486,0.216739,0.216997,0.21726,0.217528,0.217802,0.218082,0.218367,0.218659,0.218958,0.219263,0.219574,0.219891,0.220216,0.220546,0.220883,0.221225,0.221574,0.221929,0.222289,0.222656,0.223027,0.223405,0.223787,0.224176,0.224569,0.224967,0.22537,0.225776,0.226187,0.2266,0.227015,0.227433,0.227852,0.228271,0.228691,0.229111,0.229529,0.229945,0.230359,0.230769,0.231175,0.231576,0.231971,0.232361,0.232745,0.233122,0.233493,0.233859,0.234218,0.234572,0.23492,0.235264,0.235602,0.235935,0.236264,0.236587,0.236906,0.237219,0.237527,0.237829,0.238124,0.238412,0.238694,0.238969,0.239237,0.239498,0.239753,0.24,0.24024,0.240473,0.2407,0.240921,0.241136,0.241345,0.24155,0.241751,0.241949,0.242144,0.242339,0.242534,0.242731,0.242928,0.243128,0.243331,0.243536,0.243744,0.243954,0.244166,0.24438,0.244596,0.244812,0.245029,0.245247,0.245463,0.245678,0.245891,0.2461,0.246306,0.246508,0.246704,0.246895,0.24708,0.247259,0.247432,0.247597,0.247755,0.247905,0.248046,0.248179,0.248302,0.248415,0.248517,0.248609,0.248688,0.248756,0.24881,0.248851,0.248878,0.248891,0.248888,0.248871,0.248838,0.24879,0.248727,0.24865,0.248561,0.248459,0.248347,0.248226,0.248097,0.247962,0.247823,0.247682,0.24754,0.247399,0.24726,0.247126,0.246997,0.246875,0.246759,0.246652,0.246552,0.24646,0.246377,0.246301,0.246233,0.246171,0.246116,0.246068,0.246026,0.245989,0.245957,0.245929,0.245905,0.245884,0.245866,0.24585,0.245837,0.245825,0.245816,0.245809,0.245804,0.245802,0.245803,0.245805,0.24581,0.245817,0.245827,0.245838,0.245852,0.245869,0.245887,0.245907,0.245929,0.245953,0.245978,0.246003,0.246029,0.246055,0.24608,0.246103,0.246123,0.246141,0.246155,0.246165,0.246169,0.246168,0.24616,0.246145,0.246123,0.246092,0.246054,0.246006,0.245951,0.245887,0.245814,0.245734,0.245647,0.245553,0.245453,0.245347,0.245238,0.245125,0.24501,0.244893,0.244774,0.244655,0.244537,0.244418,0.244301,0.244184,0.24407,0.243956,0.243845,0.243735,0.243628,0.243522,0.243419,0.243319,0.243222,0.243127,0.243036,0.242948,0.242862,0.242779,0.242698,0.242619,0.242542,0.242467,0.242393,0.242322,0.242251,0.242183,0.242115,0.242049,0.241984,0.24192,0.241856,0.241793,0.24173,0.241666,0.241603,0.24154,0.241476,0.241413,0.241349,0.241286,0.241222,0.241157,0.241093,0.241027,0.240961,0.240894,0.240827,0.240758,0.240689,0.240619,0.240548,0.240476,0.240403,0.24033,0.240256,0.240181,0.240106,0.240032,0.239957,0.239883,0.23981,0.239737,0.239665,0.239594,0.239524,0.239454,0.239385,0.239318,0.239251,0.239186,0.239122,0.23906,0.238998,0.238938,0.238879,0.238821,0.238763,0.238707,0.23865,0.238594,0.238536,0.238479,0.23842,0.238361,0.238301,0.23824,0.238177,0.238114,0.238049,0.237983,0.237915,0.237846,0.237775,0.237702,0.237627,0.23755,0.237471,0.237391,0.237308,0.237224,0.237138,0.237051,0.236962,0.236871,0.236778,0.236683,0.236586,0.236486,0.236384,0.236279,0.236172,0.236063,0.235951,0.235836,0.235719,0.2356,0.235478,0.235353,0.235226,0.235097,0.234966,0.234833,0.234699,0.234564,0.234427,0.23429,0.234151,0.234012,0.233872,0.233732,0.233592,0.233453,0.233314,0.233176,0.23304,0.232906,0.232773,0.232643,0.232515,0.23239,0.232267,0.232146,0.232027,0.231911,0.231798,0.231687,0.23158,0.231477,0.231378,0.231284,0.231195,0.231112,0.231034,0.230962,0.230896,0.230835,0.230781,0.230733,0.230691,0.230655,0.230626,0.230604,0.230588,0.230579,0.230576,0.230579,0.230589,0.230605,0.230628,0.230657,0.230694,0.230738,0.230789,0.230849,0.230917,0.230993,0.231077,0.231168,0.231267,0.231374,0.231488,0.231609,0.231739,0.231877,0.232024,0.232181,0.232349,0.232528,0.232721,0.232927,0.233149,0.233388,0.233645,0.23392,0.234216,0.234532,0.234868,0.235225,0.235604,0.236004,0.236426,0.236869,0.237334,0.237822,0.238331,0.238863,0.239417,0.239995,0.240596,0.241222,0.241873,0.242551,0.243257,0.243992,0.244757,0.245555,0.246386,0.247253,0.248157,0.249099,0.250082,0.251108,0.252177,0.253292,0.254454,0.255664,0.256924,0.258234,0.259595,0.261007,0.262471,0.263986,0.265553,0.26717,0.268836,0.270549,0.272309,0.274112,0.275958,0.277843,0.279765,0.281722,0.283713,0.285736,0.287788,0.28987,0.291979,0.294114,0.296275,0.29846,0.300667,0.302895,0.305141,0.307403,0.309677,0.311962,0.314253,0.316547,0.318839,0.321127,0.323405,0.32567,0.327917,0.330142,0.332343,0.334515,0.336657,0.338765,0.340837,0.342873,0.344871,0.34683,0.34875,0.350631,0.352472,0.354274,0.356038,0.357761,0.359445,0.361089,0.362692,0.364254,0.365774,0.367252,0.368688,0.370081,0.371432,0.37274,0.374005,0.375228,0.376409,0.377547,0.378643,0.379696,0.380707,0.381676,0.382603,0.383487,0.384329,0.385129,0.385886,0.3866,0.387273,0.387903,0.388493,0.389041,0.38955,0.39002,0.390452,0.390847,0.391205,0.391527,0.391814,0.392067,0.392287,0.392474,0.392629,0.392753,0.392845,0.392907,0.392938,0.39294,0.392913,0.392857,0.392774,0.392665,0.39253,0.392369,0.392185,0.391978,0.391748,0.391498,0.391227,0.390936,0.390626,0.390299,0.389954,0.389593,0.389216,0.388824,0.388417,0.387998,0.387565,0.38712,0.386664,0.386198,0.385723,0.385239,0.384747,0.384248,0.383742,0.383229,0.38271,0.382186,0.381656,0.381122,0.380584,0.380042,0.379497,0.378949,0.378399,0.377847,0.377293,0.376738,0.376182,0.375625,0.375068,0.374512,0.373956,0.373401,0.372849,0.372298,0.371749,0.371203,0.370659,0.370117,0.369578,0.369041,0.368506,0.367975,0.367445,0.366919,0.366395,0.365874,0.365356,0.36484,0.364327,0.363817,0.36331,0.362807,0.362306,0.361809,0.361314,0.360823,0.360335,0.35985,0.359368,0.358887,0.358409,0.357931,0.357455,0.35698,0.356506,0.356033,0.355561,0.35509,0.354621,0.354152,0.353683,0.353215,0.352747,0.35228,0.351813,0.351346,0.35088,0.350415,0.349951,0.349489,0.349028,0.34857,0.348113,0.34766,0.347209,0.346761,0.346317,0.345877,0.34544,0.345007,0.344577,0.344151,0.343728,0.343308,0.342892,0.34248,0.342073,0.341671,0.341274,0.340884,0.340498,0.340119,0.339744,0.339376,0.339014,0.338658,0.338308,0.337965,0.337629,0.3373,0.336978,0.336663,0.336357,0.336058,0.335769,0.335488,0.335217,0.334956,0.334704,0.334461,0.334229,0.334006,0.333793,0.33359,0.333397,0.333215,0.333044,0.332884,0.332734,0.332596,0.33247,0.332355,0.332252,0.332161,0.332083,0.332016,0.331962,0.331921,0.331891,0.331875,0.331872,0.331882,0.331905,0.331942,0.331993,0.332058,0.332136,0.332229,0.332336,0.332457,0.332594,0.332745,0.332913,0.333095,0.333294,0.333508,0.333737,0.333982,0.334243,0.33452,0.334813,0.335122,0.335447,0.335789,0.336146,0.336519,0.336908,0.337314,0.337735,0.338173,0.338626,0.339096,0.339581,0.340082,0.340599,0.341131,0.341678,0.342239,0.342816,0.343406,0.34401,0.344629,0.34526,0.345906,0.346565,0.347239,0.347925,0.348624,0.349335,0.350056,0.350788,0.35153,0.352281,0.353042,0.353813,0.354594,0.355385,0.356186,0.356995,0.357813,0.358638,0.35947,0.360308,0.361151,0.361999,0.36285,0.363704,0.364561,0.365418,0.366276,0.367133,0.36799,0.368845,0.369697,0.370546,0.371391,0.37223,0.373062,0.373886,0.374699,0.375502,0.376292,0.377069,0.377833,0.378582,0.379319,0.380041,0.380749,0.381444,0.382124,0.382789,0.38344,0.384075,0.384694,0.385298,0.385885,0.386457,0.387013,0.387554,0.388081,0.388594,0.389093,0.38958,0.390055,0.390517,0.390968,0.391408,0.391838,0.392258,0.392669,0.393071,0.393464,0.393849,0.394225,0.394593,0.394953,0.395306,0.39565,0.395987,0.396317,0.39664,0.396956,0.397265,0.397567,0.397864,0.398155,0.398441,0.398722,0.398999,0.39927,0.399536,0.399797,0.400051,0.4003,0.400542,0.40078,0.401012,0.40124,0.401465,0.401686,0.401903,0.402118,0.40233,0.402538,0.402744,0.402946,0.403145,0.403341,0.403533,0.403721,0.403906,0.404087,0.404266,0.404443,0.404619,0.404795,0.404971,0.405147,0.405325,0.405504,0.405683,0.405862,0.406042,0.406222,0.406402,0.40658,0.406758,0.406935,0.407111,0.407286,0.40746,0.407634,0.407809,0.407983,0.408157,0.408329,0.4085,0.408667,0.40883,0.40899,0.409147,0.409299,0.409447,0.409592,0.409732,0.409869,0.410002,0.410131,0.410257,0.410379,0.410497,0.41061,0.410718,0.41082,0.410916,0.411007,0.411092,0.411174,0.41125,0.411323,0.411391,0.411454,0.411512,0.411565,0.411611,0.411653,0.411688,0.411719,0.411744,0.411765,0.41178,0.41179,0.411795,0.411795,0.411791,0.411783,0.411771,0.411755,0.411735,0.411711,0.411683,0.41165,0.411612,0.411571,0.411526,0.411478,0.411427,0.411373,0.411317,0.411258,0.411197,0.411133,0.411068,0.411002,0.410935,0.410868,0.410802,0.410736,0.41067,0.410606,0.410541,0.410477,0.410413,0.410349,0.410285,0.410221,0.410157,0.410092,0.410027,0.409961,0.409894,0.409826,0.409757,0.409687,0.409615,0.409542,0.409467,0.40939,0.40931,0.409226,0.409137,0.409043,0.408943,0.408837,0.408725,0.408607,0.408484,0.408357,0.408224,0.408088,0.407947,0.407802,0.407654,0.407502,0.407348,0.407193,0.407038,0.406883,0.40673,0.406579,0.406432,0.406287,0.406146,0.406007,0.40587,0.405736,0.405603,0.405472,0.405342,0.405213,0.405085,0.404959,0.404834,0.40471,0.404586,0.404461,0.404335,0.404208,0.40408,0.403951,0.403821,0.403691,0.40356,0.403426,0.40329,0.403151,0.403008,0.402861,0.402711,0.402557,0.4024,0.40224,0.402076,0.401908,0.401735,0.401557,0.401371,0.40118,0.400982,0.400778,0.40057,0.400357,0.400142,0.399923,0.399701,0.399476,0.399249,0.399018,0.398785,0.398548,0.398309,0.398066,0.397822,0.397577,0.397332,0.397087,0.396843,0.396599,0.396354,0.396109,0.395862,0.395614,0.395364,0.395112,0.39486,0.394608,0.394356,0.394105,0.393853,0.393602,0.39335,0.393097,0.392844,0.39259,0.392337,0.392084,0.391832,0.39158,0.391328,0.391077,0.390828,0.390581,0.390335,0.390093,0.389853,0.389615,0.38938,0.389147,0.388917,0.388691,0.388469,0.388251,0.388039,0.387832,0.387629,0.387433,0.387241,0.387054,0.386872,0.386693,0.386519,0.386347,0.386178,0.386012,0.385849,0.38569,0.385535,0.385385,0.38524,0.3851,0.384965,0.384834,0.384707,0.384583,0.384461,0.384341,0.384224,0.384108,0.383995,0.383884,0.383776,0.383671,0.383568,0.383469,0.383374,0.383284,0.383198,0.383117,0.383043,0.382976,0.382917,0.382867,0.382826,0.382795,0.382774,0.382763,0.382761,0.38277,0.382788,0.382818,0.382859,0.38291,0.382973,0.383047,0.383134,0.383233,0.383346,0.383473,0.383614,0.383771,0.383944,0.384134,0.384343,0.384571,0.38482,0.385092,0.385387,0.385707,0.386052,0.386424,0.386821,0.387244,0.387692,0.388167,0.388666,0.389191,0.38974,0.390314,0.390913,0.391536,0.392184,0.392857,0.393555,0.394277,0.395024,0.395793,0.396583,0.397394,0.398224,0.399073,0.399939,0.400822,0.401722,0.402639,0.403572,0.404519,0.40548,0.406452,0.407433,0.408421,0.409415,0.410411,0.411408,0.412405,0.413399,0.414389,0.415374,0.416353,0.417324,0.418288,0.419244,0.420192,0.421132,0.422062,0.422983,0.423892,0.42479,0.425676,0.426549,0.427409,0.428256,0.429092,0.429915,0.430728,0.431532,0.432328,0.433116,0.433899,0.434678,0.435453,0.436224,0.436991,0.437753,0.438511,0.439262,0.440009,0.440749,0.441483,0.442212,0.442936,0.443652,0.444361,0.445063,0.445756,0.446442,0.447118,0.447785,0.448439,0.44908,0.449706,0.450314,0.450906,0.451479,0.452034,0.45257,0.453086,0.453582,0.454055,0.454505,0.45493,0.45533,0.455708,0.456063,0.4564,0.45672,0.457025,0.457316,0.457595,0.457862,0.458117,0.458362,0.458598,0.458824,0.459043,0.459256,0.459465,0.459671,0.459878,0.460086,0.460298,0.460516,0.460741,0.460973,0.461215,0.461468,0.461732,0.462008,0.462297,0.462597,0.46291,0.463234,0.463571,0.463922,0.464287,0.464668,0.465067,0.465483,0.465917,0.466368,0.466836,0.467321,0.467821,0.468337,0.468867,0.469409,0.469961,0.470517,0.471076,0.471635,0.47219,0.472743,0.473292,0.473838,0.474383,0.474926,0.475468,0.476008,0.476545,0.477078,0.477607,0.478131,0.478648,0.479156,0.479655,0.480139,0.480608,0.481057,0.481483,0.481885,0.482259,0.482604,0.482917,0.483196,0.48344,0.483646,0.483814,0.483943,0.484034,0.484089,0.484109,0.484096,0.484052,0.483982,0.483886,0.483772,0.483643,0.483506,0.483367,0.48323,0.483099,0.482976,0.482862,0.482757,0.482661,0.482574,0.482498,0.482432,0.482381,0.482345,0.482325,0.482324,0.482338,0.482368,0.482411,0.482464,0.482524,0.482589,0.482657,0.482727,0.482798,0.482871,0.482944,0.483019,0.483095,0.483171,0.483246,0.48332,0.483393,0.483464,0.483535,0.483605,0.483676,0.483749,0.483824,0.483903,0.483987,0.484078,0.484175,0.48428,0.484391,0.484506,0.484625,0.484746,0.484866,0.484986,0.485103,0.485219,0.485333,0.485443,0.48555,0.485652,0.485748,0.485838,0.485919,0.485991,0.48605,0.486097,0.486127,0.486138,0.486128,0.486093,0.486032,0.485944,0.485829,0.485689,0.485527,0.485342,0.485137,0.484911,0.484665,0.484399,0.484116,0.48382,0.483513,0.483202,0.482891,0.482583,0.48228,0.481985,0.481698,0.481419,0.481149,0.480887,0.480635,0.480391,0.480156,0.479931,0.479714,0.479506,0.479307,0.479114,0.478928,0.478747,0.478571,0.478399,0.47823,0.478066,0.477906,0.477748,0.477591,0.477435,0.47728,0.477126,0.476974,0.476826,0.476682,0.476543,0.476409,0.476279,0.476154,0.476032,0.475913,0.475798,0.475688,0.475583,0.475484,0.47539,0.475303,0.475221,0.475145,0.475076,0.475014,0.47496,0.474915,0.474879,0.474852,0.474834,0.474824,0.474823,0.474828,0.474838,0.474852,0.474869,0.474886,0.474904,0.474922,0.474939,0.474955,0.474969,0.47498,0.47499,0.474998,0.475006,0.475016,0.475028,0.475044,0.475063,0.475086,0.475113,0.475144,0.475179,0.475218,0.475262,0.47531,0.475363,0.475422,0.475486,0.475555,0.47563,0.475709,0.475792,0.475881,0.475976,0.476079,0.47619,0.476313,0.476446,0.476589,0.476743,0.476907,0.477081,0.477267,0.477464,0.477671,0.477887,0.478111,0.478343,0.47858,0.478821,0.479067,0.479317,0.479573,0.479836,0.480107,0.480387,0.480678,0.480979,0.48129,0.481608,0.481932,0.482262,0.482596,0.482935,0.483281,0.483635,0.484,0.484376,0.484764,0.485163,0.485572,0.485991,0.486417,0.486852,0.487296,0.487749,0.488212,0.488685,0.489168,0.489663,0.49017,0.490688,0.491217,0.491758,0.492311,0.492877,0.493456,0.494049,0.494654,0.49527,0.495894,0.496526,0.497162,0.497805,0.498454,0.499112,0.49978,0.500459,0.50115,0.50185,0.502559,0.503277,0.504005,0.504744,0.505494,0.506256,0.507031,0.507815,0.508609,0.50941,0.510217,0.511028,0.511844,0.512666,0.513492,0.514325,0.515163,0.516006,0.516852,0.5177,0.518551,0.519403,0.520257,0.521114,0.521973,0.522834,0.523696,0.52456,0.525424,0.526289,0.527157,0.528028,0.528905,0.529787,0.530678,0.531579,0.532489,0.533408,0.534334,0.535264,0.536195,0.537126,0.538056,0.538984,0.53991,0.540835,0.541758,0.542681,0.543604,0.544524,0.545441,0.546352,0.547255,0.548149,0.549034,0.549909,0.550776,0.551635,0.552487,0.553332,0.554168,0.554994,0.555808,0.556606,0.557388,0.558153,0.558902,0.559636,0.560357,0.561069,0.561776,0.562478,0.563178,0.563875,0.564569,0.565255,0.565933,0.5666,0.567254,0.567896,0.568527,0.569149,0.569765,0.570377,0.570984,0.571586,0.57218,0.572761,0.573326,0.573875,0.574407,0.574924,0.575429,0.575924,0.576412,0.576893,0.577367,0.577833,0.578288,0.578728,0.579151,0.579555,0.57994,0.580305,0.580651,0.580979,0.581286,0.581572,0.581836,0.582076,0.582293,0.582486,0.582656,0.582806,0.582938,0.583052,0.583151,0.583234,0.583302,0.583355,0.583391,0.58341,0.583412,0.583395,0.583359,0.583306,0.583233,0.583141,0.583028,0.582891,0.582891
