sample,dm,ash,om,ndf,adf,protein,tddm,gas_g_dm_incubach4_g_dm_incubatch4_g_digested,ch4_g_dm_m_incubatch4_digested,ch4_g_digested,part,ch4_8h,ch4_24h,400,402,404,406,408,410,412,414,416,418,420,422,424,426,428,430,432,434,436,438,440,442,444,446,448,450,452,454,456,458,460,462,464,466,468,470,472,474,476,478,480,482,484,486,488,490,492,494,496,498,500,502,504,506,508,510,512,514,516,518,520,522,524,526,528,530,532,534,536,538,540,542,544,546,548,550,552,554,556,558,560,562,564,566,568,570,572,574,576,578,580,582,584,586,588,590,592,594,596,598,600,602,604,606,608,610,612,614,616,618,620,622,624,626,628,630,632,634,636,638,640,642,644,646,648,650,652,654,656,658,660,662,664,666,668,670,672,674,676,678,680,682,684,686,688,690,692,694,696,698,700,702,704,706,708,710,712,714,716,718,720,722,724,726,728,730,732,734,736,738,740,742,744,746,748,750,752,754,756,758,760,762,764,766,768,770,772,774,776,778,780,782,784,786,788,790,792,794,796,798,800,802,804,806,808,810,812,814,816,818,820,822,824,826,828,830,832,834,836,838,840,842,844,846,848,850,852,854,856,858,860,862,864,866,868,870,872,874,876,878,880,882,884,886,888,890,892,894,896,898,900,902,904,906,908,910,912,914,916,918,920,922,924,926,928,930,932,934,936,938,940,942,944,946,948,950,952,954,956,958,960,962,964,966,968,970,972,974,976,978,980,982,984,986,988,990,992,994,996,998,1000,1002,1004,1006,1008,1010,1012,1014,1016,1018,1020,1022,1024,1026,1028,1030,1032,1034,1036,1038,1040,1042,1044,1046,1048,1050,1052,1054,1056,1058,1060,1062,1064,1066,1068,1070,1072,1074,1076,1078,1080,1082,1084,1086,1088,1090,1092,1094,1096,1098,1100,1102,1104,1106,1108,1110,1112,1114,1116,1118,1120,1122,1124,1126,1128,1130,1132,1134,1136,1138,1140,1142,1144,1146,1148,1150,1152,1154,1156,1158,1160,1162,1164,1166,1168,1170,1172,1174,1176,1178,1180,1182,1184,1186,1188,1190,1192,1194,1196,1198,1200,1202,1204,1206,1208,1210,1212,1214,1216,1218,1220,1222,1224,1226,1228,1230,1232,1234,1236,1238,1240,1242,1244,1246,1248,1250,1252,1254,1256,1258,1260,1262,1264,1266,1268,1270,1272,1274,1276,1278,1280,1282,1284,1286,1288,1290,1292,1294,1296,1298,1300,1302,1304,1306,1308,1310,1312,1314,1316,1318,1320,1322,1324,1326,1328,1330,1332,1334,1336,1338,1340,1342,1344,1346,1348,1350,1352,1354,1356,1358,1360,1362,1364,1366,1368,1370,1372,1374,1376,1378,1380,1382,1384,1386,1388,1390,1392,1394,1396,1398,1400,1402,1404,1406,1408,1410,1412,1414,1416,1418,1420,1422,1424,1426,1428,1430,1432,1434,1436,1438,1440,1442,1444,1446,1448,1450,1452,1454,1456,1458,1460,1462,1464,1466,1468,1470,1472,1474,1476,1478,1480,1482,1484,1486,1488,1490,1492,1494,1496,1498,1500,1502,1504,1506,1508,1510,1512,1514,1516,1518,1520,1522,1524,1526,1528,1530,1532,1534,1536,1538,1540,1542,1544,1546,1548,1550,1552,1554,1556,1558,1560,1562,1564,1566,1568,1570,1572,1574,1576,1578,1580,1582,1584,1586,1588,1590,1592,1594,1596,1598,1600,1602,1604,1606,1608,1610,1612,1614,1616,1618,1620,1622,1624,1626,1628,1630,1632,1634,1636,1638,1640,1642,1644,1646,1648,1650,1652,1654,1656,1658,1660,1662,1664,1666,1668,1670,1672,1674,1676,1678,1680,1682,1684,1686,1688,1690,1692,1694,1696,1698,1700,1702,1704,1706,1708,1710,1712,1714,1716,1718,1720,1722,1724,1726,1728,1730,1732,1734,1736,1738,1740,1742,1744,1746,1748,1750,1752,1754,1756,1758,1760,1762,1764,1766,1768,1770,1772,1774,1776,1778,1780,1782,1784,1786,1788,1790,1792,1794,1796,1798,1800,1802,1804,1806,1808,1810,1812,1814,1816,1818,1820,1822,1824,1826,1828,1830,1832,1834,1836,1838,1840,1842,1844,1846,1848,1850,1852,1854,1856,1858,1860,1862,1864,1866,1868,1870,1872,1874,1876,1878,1880,1882,1884,1886,1888,1890,1892,1894,1896,1898,1900,1902,1904,1906,1908,1910,1912,1914,1916,1918,1920,1922,1924,1926,1928,1930,1932,1934,1936,1938,1940,1942,1944,1946,1948,1950,1952,1954,1956,1958,1960,1962,1964,1966,1968,1970,1972,1974,1976,1978,1980,1982,1984,1986,1988,1990,1992,1994,1996,1998,2000,2002,2004,2006,2008,2010,2012,2014,2016,2018,2020,2022,2024,2026,2028,2030,2032,2034,2036,2038,2040,2042,2044,2046,2048,2050,2052,2054,2056,2058,2060,2062,2064,2066,2068,2070,2072,2074,2076,2078,2080,2082,2084,2086,2088,2090,2092,2094,2096,2098,2100,2102,2104,2106,2108,2110,2112,2114,2116,2118,2120,2122,2124,2126,2128,2130,2132,2134,2136,2138,2140,2142,2144,2146,2148,2150,2152,2154,2156,2158,2160,2162,2164,2166,2168,2170,2172,2174,2176,2178,2180,2182,2184,2186,2188,2190,2192,2194,2196,2198,2200,2202,2204,2206,2208,2210,2212,2214,2216,2218,2220,2222,2224,2226,2228,2230,2232,2234,2236,2238,2240,2242,2244,2246,2248,2250,2252,2254,2256,2258,2260,2262,2264,2266,2268,2270,2272,2274,2276,2278,2280,2282,2284,2286,2288,2290,2292,2294,2296,2298,2300,2302,2304,2306,2308,2310,2312,2314,2316,2318,2320,2322,2324,2326,2328,2330,2332,2334,2336,2338,2340,2342,2344,2346,2348,2350,2352,2354,2356,2358,2360,2362,2364,2366,2368,2370,2372,2374,2376,2378,2380,2382,2384,2386,2388,2390,2392,2394,2396,2398,2400,2402,2404,2406,2408,2410,2412,2414,2416,2418,2420,2422,2424,2426,2428,2430,2432,2434,2436,2438,2440,2442,2444,2446,2448,2450,2452,2454,2456,2458,2460,2462,2464,2466,2468,2470,2472,2474,2476,2478,2480,2482,2484,2486,2488,2490,2492,2494,2496,2498
403,94.0899963,14.3199997,85.6800003,48.4300003,24.9300003,17.1100006,84.4100037,212.1900024,30.9899998,36.7900009,3.99,13.3000002,14.6000004,1.0397587,1.0446059,1.0485228,1.0517342,1.0544016,1.0566585,1.0585377,1.0600133,1.0611665,1.0622002,1.063228,1.0641272,1.0647113,1.0649728,1.0650605,1.0650287,1.0647943,1.06431,1.0636309,1.0627589,1.0616096,1.0602307,1.0587072,1.0569977,1.0550642,1.0529025,1.0505829,1.0481807,1.0456963,1.0430738,1.0402608,1.0372671,1.0340204,1.0304788,1.0266569,1.0225694,1.018205,1.0135565,1.0085649,1.0032672,0.9977078,0.9919695,0.9860991,0.9801059,0.9739498,0.9676639,0.9612685,0.9547707,0.9481373,0.9413325,0.9342484,0.9268356,0.9190395,0.9108294,0.9021846,0.8930932,0.8836005,0.8737785,0.8637941,0.853856,0.8442156,0.8351388,0.8268769,0.8196318,0.8135286,0.8085839,0.8046917,0.8016196,0.799045,0.7965932,0.7939032,0.7906815,0.7867679,0.7821569,0.7769881,0.7714958,0.765953,0.7606168,0.7556932,0.7513142,0.7475383,0.7443558,0.7417179,0.739549,0.7377576,0.7362456,0.7349417,0.7337897,0.7327465,0.7317889,0.7309417,0.7302434,0.7297341,0.7295122,0.7296616,0.7302412,0.7313442,0.7330456,0.7353774,0.7383548,0.7419561,0.7460759,0.7505578,0.7551941,0.7597566,0.7640094,0.7677348,0.7707744,0.7730423,0.7745306,0.7753075,0.7754961,0.7752788,0.7748885,0.7745785,0.7746373,0.7753535,0.7769964,0.7798051,0.7839604,0.7895533,0.7965794,0.8049325,0.8144389,0.824895,0.8361237,0.8479967,0.8604358,0.8733717,0.8866799,0.9001266,0.9133244,0.9257423,0.936717,0.9455245,0.9514646,0.9539331,0.9524825,0.946812,0.9367988,0.9224989,0.9041578,0.8821974,0.8571867,0.8298135,0.8008283,0.7709652,0.7408795,0.7111142,0.6820721,0.6540316,0.6271723,0.6016051,0.5774049,0.5546164,0.5332652,0.513355,0.4948688,0.4777813,0.4620386,0.447578,0.4343307,0.4222206,0.4111704,0.401094,0.3919106,0.3835494,0.3759481,0.3690457,0.3627879,0.3571226,0.35199,0.347332,0.3430891,0.3391972,0.3355895,0.3321986,0.3289652,0.3258302,0.3227444,0.3196643,0.3165642,0.3134361,0.310282,0.3071244,0.3039986,0.3009398,0.2979783,0.2951349,0.2924228,0.2898431,0.2873904,0.285055,0.2828224,0.2806737,0.2785914,0.2765584,0.2745642,0.2726014,0.2706634,0.2687418,0.2668262,0.2649161,0.2630161,0.2611383,0.2592945,0.2574899,0.2557271,0.2540062,0.252321,0.2506634,0.2490248,0.2473981,0.2457762,0.2441584,0.2425459,0.2409375,0.2393343,0.2377293,0.2361297,0.2345378,0.2329513,0.2313697,0.2297961,0.2282315,0.2266771,0.2251354,0.2236017,0.2220792,0.2205745,0.2190863,0.217611,0.2161423,0.2146918,0.2132611,0.2118592,0.2104843,0.2091236,0.2077786,0.2064578,0.2051628,0.2038966,0.2026554,0.2014388,0.2002477,0.1990814,0.1979423,0.1968277,0.1957374,0.1946719,0.1936322,0.1926207,0.1916397,0.1906845,0.1897485,0.1888285,0.1879224,0.1870287,0.1861497,0.1852839,0.1844306,0.18359,0.1827646,0.1819538,0.181155,0.1803689,0.1795966,0.1788392,0.178095,0.1773645,0.1766515,0.1759602,0.1752898,0.1746391,0.1740103,0.1734059,0.1728262,0.1722693,0.1717346,0.1712175,0.1707207,0.1702461,0.1697924,0.1693605,0.1689477,0.1685519,0.1681685,0.1677952,0.1674273,0.1670607,0.1666986,0.166336,0.1659721,0.165606,0.1652377,0.1648675,0.1644973,0.1641225,0.1637476,0.1633735,0.1630002,0.1626296,0.1622609,0.1618949,0.1615302,0.1611691,0.1608105,0.1604532,0.1600944,0.159735,0.1593724,0.1590097,0.1586477,0.1582877,0.1579308,0.1575768,0.1572273,0.1568823,0.1565389,0.1561988,0.1558619,0.1555314,0.1552055,0.1548866,0.1545761,0.1542686,0.1539628,0.1536592,0.1533594,0.1530611,0.1527616,0.1524611,0.15216,0.1518609,0.151567,0.1512795,0.1509966,0.1507158,0.1504417,0.1501742,0.1499085,0.1496436,0.1493752,0.1491159,0.1488654,0.1486162,0.1483545,0.1480709,0.1477693,0.1474592,0.1466934,0.1465056,0.146321,0.1461399,0.145976,0.1458262,0.1456768,0.1455302,0.1454075,0.1453138,0.1452422,0.1451915,0.1451646,0.1451682,0.1452182,0.1453217,0.1454685,0.1456536,0.1458729,0.1461143,0.1463729,0.1466526,0.1469617,0.1473035,0.1476697,0.1480594,0.1484811,0.1489417,0.1494396,0.1499671,0.1505169,0.1510783,0.151631,0.1521566,0.1526612,0.1531572,0.1536463,0.1541364,0.1546467,0.1551916,0.1557621,0.1563329,0.1568754,0.1573661,0.1577883,0.1581278,0.1583827,0.1585671,0.1586934,0.1587728,0.1588096,0.1588048,0.1587595,0.1586711,0.1585334,0.1583297,0.1580515,0.1577035,0.1572882,0.1568106,0.1562801,0.1557115,0.1551234,0.1545397,0.1539793,0.1534493,0.1529498,0.1524754,0.1520188,0.151582,0.1511654,0.1507638,0.1503848,0.1500378,0.149719,0.1494185,0.1491313,0.1488651,0.1486366,0.1484488,0.1482878,0.1481425,0.1480079,0.1478788,0.1477545,0.1476339,0.1475082,0.1473709,0.147217,0.1470449,0.1468504,0.1466376,0.1464198,0.146208,0.1460059,0.1458084,0.1456182,0.1454429,0.1452879,0.1451563,0.1450417,0.144942,0.1448625,0.1448109,0.144792,0.1448033,0.1448426,0.1449084,0.1449994,0.1451193,0.1452713,0.1454593,0.1456903,0.1459722,0.1463088,0.1466933,0.1471251,0.1476033,0.1481333,0.1487291,0.1493919,0.1501153,0.1508965,0.1517347,0.1526304,0.15358,0.1545722,0.1555956,0.1566411,0.1576952,0.1587401,0.1597557,0.1607306,0.1616578,0.1625291,0.163338,0.1640826,0.1647799,0.1654676,0.166187,0.1669742,0.1678561,0.168852,0.1699715,0.1712146,0.1725775,0.1740572,0.1756625,0.177424,0.1793725,0.1815248,0.1838987,0.1865039,0.1893308,0.1923562,0.1955468,0.1988665,0.2022764,0.2057391,0.2092256,0.2127113,0.2161615,0.219533,0.222783,0.2258769,0.2287883,0.2315031,0.2340135,0.2363171,0.2384234,0.2403455,0.2421009,0.2437042,0.245168,0.246509,0.2477442,0.2488908,0.2499637,0.2509717,0.2519132,0.2527841,0.2535834,0.2543104,0.2549616,0.255534,0.2560307,0.2564602,0.2568327,0.257158,0.2574464,0.2577056,0.2579334,0.2581268,0.2582851,0.258406,0.2584829,0.2585056,0.2584731,0.2583834,0.2582318,0.2580211,0.2577546,0.2574335,0.2570633,0.2566531,0.256209,0.2557335,0.2552312,0.2547165,0.2542019,0.2536947,0.2532055,0.2527426,0.2523094,0.2519107,0.2515572,0.2512496,0.2509781,0.2507409,0.2505397,0.2503605,0.2501878,0.2500174,0.2498546,0.2497063,0.2495742,0.2494621,0.2493763,0.2493288,0.2493289,0.2493714,0.2494459,0.249549,0.2496685,0.2497859,0.2498982,0.2500044,0.2500904,0.2501433,0.2501496,0.2500955,0.2499762,0.2497919,0.2495399,0.2492146,0.2488245,0.2483789,0.2478823,0.2473406,0.2467604,0.2461514,0.2455282,0.2449001,0.2442719,0.2436473,0.2430239,0.2423985,0.241771,0.2411462,0.2405239,0.2398971,0.2392699,0.2386499,0.2380456,0.2374578,0.2368811,0.2363238,0.2357884,0.2352725,0.2347853,0.2343445,0.2339523,0.233601,0.2332861,0.2330109,0.2327881,0.2326331,0.2325652,0.2325989,0.2327291,0.2329389,0.2332243,0.2335966,0.2340694,0.2346578,0.235376,0.2362332,0.2372308,0.2383701,0.2396525,0.2410817,0.2426533,0.2443327,0.2460635,0.2477799,0.2494272,0.2509808,0.2524443,0.2538267,0.2551206,0.2563066,0.2573718,0.2583085,0.2591243,0.2598588,0.2605624,0.2612636,0.2619764,0.2627056,0.2634499,0.264214,0.2649912,0.2657453,0.2663978,0.2668405,0.2669885,0.2668384,0.2664694,0.2660085,0.2655781,0.2652473,0.2650313,0.2649169,0.2648697,0.2648655,0.264901,0.2649687,0.2650565,0.2651444,0.2652006,0.265185,0.2650573,0.264781,0.2643475,0.2637893,0.2631682,0.2625394,0.2619357,0.2613666,0.2608359,0.260345,0.2598811,0.2594405,0.2590215,0.2586147,0.2582121,0.257809,0.2573951,0.2569662,0.2565256,0.2560775,0.255633,0.2552,0.2547863,0.2544002,0.254044,0.2537037,0.2533639,0.2530189,0.2526618,0.2522886,0.2519,0.251493,0.2510572,0.2505927,0.2501035,0.2495931,0.2490687,0.2485354,0.2480036,0.2474843,0.2469809,0.246492,0.2460355,0.2456411,0.2453264,0.2451036,0.2449744,0.2449297,0.2449754,0.2451286,0.2453985,0.2457984,0.2463497,0.2470882,0.2480536,0.2492791,0.2507916,0.2526126,0.2547764,0.25734,0.260375,0.2639571,0.2681487,0.272984,0.278451,0.2844836,0.2910088,0.2979878,0.305373,0.3130551,0.3208682,0.3286099,0.3360923,0.3431948,0.3498711,0.356093,0.3618277,0.3670539,0.3717496,0.3758909,0.3794515,0.3824209,0.3848253,0.3866942,0.3880493,0.3889138,0.3893162,0.389291,0.3888772,0.3881195,0.3870687,0.3857672,0.3842582,0.3825851,0.380793,0.3789288,0.377023,0.3750947,0.3731635,0.3712456,0.3693618,0.3675254,0.3657396,0.3639995,0.3622843,0.3605662,0.3588415,0.3571195,0.3553966,0.3536813,0.3519855,0.3503207,0.3486915,0.3470977,0.3455679,0.3441207,0.3427644,0.3415164,0.3403991,0.3394299,0.3386211,0.338001,0.3375864,0.337374,0.3373598,0.337559,0.3379827,0.338629,0.3395075,0.3406274,0.3420027,0.3436371,0.3455241,0.3476552,0.3500202,0.3526025,0.3553997,0.358393,0.3615526,0.3648626,0.3682856,0.3717807,0.3752971,0.3787819,0.382167,0.3853687,0.3883399,0.3910643,0.3935188,0.3957025,0.3976563,0.3994213,0.4010321,0.4025019,0.4038417,0.405068,0.4062097,0.4072874,0.408287,0.4092132,0.4100908,0.4109375,0.4117514,0.4125337,0.4133025,0.4140611,0.414795,0.4154836,0.4161406,0.4167609,0.4173303,0.4178386,0.4182886,0.4186692,0.4189865,0.4192372,0.41939,0.4194413,0.4194005,0.4192808,0.4190839,0.4188362,0.4185612,0.4182644,0.4179611,0.4176586,0.4173767,0.4171311,0.4169042,0.416664,0.4163676,0.4159939,0.4155534,0.4150499,0.4145169,0.4139948,0.4134885,0.4129929,0.4125118,0.4120349,0.4115734,0.4110987,0.4105658,0.4099469,0.409218,0.4084114,0.4075449,0.4065982,0.4055854,0.4045427,0.4034485,0.4023117,0.4011509,0.3999748,0.3988084,0.3976734,0.3965741,0.3955032,0.3944706,0.3934779,0.3925171,0.3915882,0.3906966,0.3898044,0.3888972,0.3879981,0.3871233,0.3862941,0.3855606,0.3849596,0.3845145,0.384248,0.3842005,0.384416,0.3849561,0.3858569,0.3871199,0.3887455,0.3907539,0.3931369,0.395877,0.3989795,0.402403,0.4060709,0.4099162,0.4139045,0.4179975,0.4221499,0.4263357,0.4305348,0.4347099,0.4387949,0.4427486,0.4465245,0.4500517,0.4532232,0.4559855,0.4582744,0.4601316,0.4616857,0.4629943,0.4640933,0.4650444,0.4659058,0.4667388,0.4675935,0.4685799,0.469793,0.4712556,0.4728698,0.4745411,0.4762822,0.4780595,0.479782,0.4812494,0.4822066,0.4824033,0.4817838,0.4805659,0.4791878,0.4780154,0.4771614,0.4766988,0.4765659,0.4765815,0.4766888,0.4768817,0.4771284,0.47745,0.4779002,0.4784595,0.4790616,0.4796625,0.4801536,0.4803725,0.4801343,0.479395,0.4782323,0.4768294,0.4754849,0.4743491,0.4734611,0.4727734,0.4721639,0.4715565,0.4709246,0.4703256,0.4698068,0.4693853,0.4690801,0.4688652,0.4687322,0.4686845,0.4686974,0.4687338,0.4687726,0.4688433,0.4689416,0.469097,0.4693767,0.4697872,0.4703489,0.4710782,0.4719658,0.4729218,0.4738997,0.4750234,0.4763663,0.4778822,0.4795231,0.4812114,0.4829934,0.4849648,0.4871353,0.4894858,0.4919435,0.4945472,0.497324,0.5002589,0.503333,0.5065014,0.509742,0.5129763,0.5162144,0.5195089,0.5229144,0.5264415,0.5299736,0.5334351,0.5368767,0.5403035,0.5436938,0.547018,0.5501454,0.5530528,0.5558842,0.5586522,0.5612633,0.5637191,0.5659274,0.5679277,0.5698451,0.5715194,0.5728036,0.5737211,0.5743302,0.5747043,0.5748163,0.5745924
404,94.1500015,12.5,87.5,55.7599983,24.7900009,15.8999996,78.7600021,230.4400024,32.7299995,43.5,3.4400001,12.6400003,14.1999998,1.0418524,1.04669,1.0506661,1.0537949,1.0561764,1.0580059,1.0594152,1.0604529,1.0612004,1.0617737,1.0622116,1.0624592,1.0624514,1.0621474,1.0615574,1.0606954,1.0595207,1.0579585,1.0559949,1.0536833,1.0511163,1.0484655,1.0458146,1.0430888,1.0402343,1.0372154,1.0340463,1.0307581,1.0273454,1.0237671,1.0199813,1.0160106,1.0118167,1.0073795,1.0026869,0.9977077,0.9924266,0.9868881,0.9810944,0.9750939,0.9688991,0.9625821,0.9562248,0.9498713,0.943491,0.9371147,0.9307458,0.9243622,0.9179269,0.9114401,0.9048314,0.8980582,0.8910507,0.8837514,0.8761021,0.8680494,0.8596032,0.8508099,0.8418165,0.8328072,0.824003,0.8156425,0.8079666,0.8011826,0.7954285,0.7907419,0.7870442,0.7841265,0.7816782,0.7793294,0.7767184,0.7735442,0.7696306,0.7649495,0.7596132,0.7538276,0.7478431,0.7419065,0.736226,0.7309412,0.7261163,0.7217405,0.71776,0.7140987,0.7106758,0.707414,0.704268,0.7012147,0.698251,0.6953968,0.69272,0.6903041,0.6882309,0.6866289,0.6856016,0.6852259,0.6856109,0.6868396,0.6889403,0.6919078,0.6956802,0.7000977,0.704941,0.7099352,0.7147868,0.7192023,0.7229201,0.725756,0.7276224,0.7285354,0.7286025,0.7279887,0.7269177,0.7256623,0.7245091,0.7237699,0.723744,0.7247025,0.726886,0.7304868,0.7356243,0.7423449,0.7506137,0.7603377,0.7713819,0.7836069,0.7968869,0.8111086,0.826124,0.841692,0.8574458,0.8728639,0.8872888,0.8999457,0.9100192,0.9167442,0.919493,0.9178541,0.9116371,0.9009048,0.8859544,0.8672969,0.8455997,0.8216009,0.7960352,0.7695645,0.7427201,0.7158831,0.6893036,0.6631299,0.6374685,0.6124294,0.5881553,0.5648306,0.5426515,0.5217972,0.5023988,0.4845236,0.4681792,0.4532979,0.439772,0.4274744,0.416273,0.406048,0.3966909,0.3881159,0.380261,0.3730806,0.3665332,0.360583,0.355193,0.3503153,0.3458993,0.3418883,0.338219,0.3348247,0.3316402,0.3286092,0.3256763,0.3227946,0.3199227,0.3170373,0.3141342,0.3112175,0.3083092,0.3054411,0.3026435,0.2999409,0.2973488,0.294876,0.2925215,0.2902795,0.2881418,0.2860938,0.2841153,0.2821887,0.2802987,0.2784368,0.2765962,0.2747713,0.2729553,0.2711406,0.2693286,0.2675251,0.2657428,0.2639938,0.2622832,0.2606133,0.2589847,0.2573913,0.2558251,0.2542774,0.2527417,0.2512113,0.2496863,0.2481686,0.2466572,0.2451523,0.2436457,0.2421438,0.2406496,0.2391615,0.2376794,0.236206,0.2347416,0.233286,0.2318415,0.2304047,0.2289796,0.2275717,0.2261791,0.2247984,0.2234234,0.2220644,0.2207225,0.2194075,0.218118,0.216841,0.2155775,0.2143361,0.2131183,0.2119261,0.2107559,0.2096084,0.2084847,0.207384,0.2063085,0.2052556,0.2042249,0.2032166,0.2022322,0.2012744,0.200345,0.1994394,0.1985517,0.197679,0.1968198,0.1959723,0.1951385,0.1943169,0.1935067,0.1927085,0.1919249,0.1911547,0.1903943,0.1896442,0.188906,0.1881811,0.1874682,0.186767,0.1860802,0.1854117,0.1847606,0.1841263,0.1835112,0.1829173,0.1823447,0.1817912,0.1812566,0.1807367,0.1802349,0.1797532,0.1792903,0.1788473,0.1784213,0.1780102,0.1776104,0.1772203,0.1768356,0.1764518,0.1760722,0.1756921,0.1753107,0.1749271,0.1745408,0.1741522,0.1737636,0.1733707,0.1729781,0.172586,0.1721944,0.1718045,0.1714159,0.1710301,0.1706456,0.1702644,0.1698853,0.1695075,0.1691286,0.1687495,0.168368,0.1679875,0.1676092,0.167234,0.1668625,0.1664944,0.1661314,0.1657736,0.1654181,0.165067,0.1647192,0.164378,0.1640415,0.1637124,0.1633923,0.1630762,0.1627627,0.162452,0.1621458,0.1618421,0.161538,0.1612333,0.1609282,0.1606251,0.1603268,0.160034,0.1597454,0.1594591,0.1591796,0.1589073,0.1586376,0.1583704,0.1581022,0.1578448,0.1575954,0.157344,0.1570759,0.1567806,0.1564604,0.1561241,0.1552195,0.1549945,0.1547787,0.1545758,0.1543934,0.1542246,0.154053,0.1538754,0.1537121,0.153574,0.1534576,0.1533632,0.153293,0.1532493,0.1532456,0.1532878,0.1533606,0.1534566,0.1535751,0.153708,0.153853,0.1540162,0.1542085,0.1544357,0.154688,0.1549596,0.1552556,0.1555821,0.1559387,0.1563208,0.1567234,0.157137,0.1575444,0.1579323,0.1583064,0.1586768,0.1590452,0.1594149,0.1598011,0.1602195,0.1606615,0.1611037,0.1615263,0.1619095,0.1622374,0.1625034,0.1627101,0.1628673,0.1629774,0.1630438,0.1630735,0.1630731,0.1630449,0.1629851,0.1628822,0.162717,0.1624852,0.1621936,0.1618445,0.1614406,0.1609876,0.1605005,0.1599965,0.1594929,0.1590062,0.1585455,0.1581105,0.1576937,0.1572876,0.1569006,0.1565389,0.156194,0.1558657,0.1555587,0.1552709,0.1550012,0.1547489,0.1545155,0.1543085,0.1541294,0.1539716,0.1538316,0.1537015,0.1535714,0.1534429,0.1533188,0.1531926,0.1530574,0.152907,0.1527417,0.1525575,0.1523564,0.1521522,0.1519561,0.1517705,0.1515888,0.1514127,0.1512502,0.1511031,0.150969,0.1508463,0.1507414,0.1506595,0.1506021,0.150568,0.150553,0.1505588,0.1505885,0.150643,0.1507245,0.1508332,0.1509723,0.151147,0.1513626,0.1516253,0.1519297,0.1522745,0.1526586,0.1530837,0.1535619,0.1540993,0.154696,0.1553484,0.1560493,0.1567958,0.1575883,0.1584189,0.1592754,0.1601512,0.1610365,0.1619127,0.1627637,0.1635843,0.1643649,0.1650883,0.1657495,0.1663561,0.1669259,0.167488,0.1680733,0.1687115,0.169431,0.1702557,0.1711935,0.1722419,0.173398,0.1746581,0.1760276,0.1775348,0.1792157,0.1810948,0.1831918,0.1855172,0.1880631,0.1908089,0.1937306,0.1968016,0.1999863,0.2032457,0.2065477,0.2098663,0.2131679,0.2164097,0.2195484,0.2225487,0.2253821,0.2280299,0.2304805,0.2327349,0.2348049,0.2366957,0.2384145,0.2399723,0.2413824,0.242661,0.2438236,0.2448904,0.2458828,0.2468109,0.2476714,0.2484575,0.2491682,0.2498071,0.250373,0.2508628,0.2512789,0.2516291,0.2519246,0.2521729,0.2523782,0.2525471,0.2526824,0.2527867,0.2528604,0.2528975,0.2528899,0.2528302,0.2527226,0.2525696,0.2523637,0.252102,0.251785,0.2514175,0.2510116,0.2505741,0.2501037,0.2496048,0.2490889,0.2485717,0.2480599,0.247556,0.2470712,0.2466166,0.2461983,0.2458203,0.2454881,0.2452014,0.2449503,0.2447291,0.244541,0.2443801,0.2442309,0.2440847,0.2439457,0.2438236,0.2437211,0.2436375,0.2435769,0.2435493,0.2435592,0.2435987,0.2436608,0.2437481,0.2438467,0.2439352,0.2440141,0.2440809,0.2441197,0.2441238,0.2440858,0.2439962,0.2438489,0.2436382,0.2433596,0.2430089,0.2425968,0.2421336,0.2416242,0.2410749,0.2404893,0.2398725,0.239238,0.2385956,0.237954,0.2373206,0.2366895,0.2360521,0.2354059,0.2347592,0.2341147,0.2334652,0.2328169,0.2321777,0.2315557,0.2309546,0.2303655,0.2297931,0.2292456,0.2287265,0.2282423,0.2278004,0.2273968,0.2270271,0.2266886,0.2263855,0.2261309,0.2259343,0.225804,0.2257484,0.2257678,0.2258533,0.226007,0.226247,0.226585,0.2270277,0.2275861,0.2282719,0.2290911,0.2300445,0.23113,0.2323511,0.233704,0.2351553,0.2366544,0.2381435,0.2395731,0.2409184,0.2421819,0.2433726,0.2444868,0.2455126,0.2464449,0.2472764,0.2480085,0.2486767,0.2493327,0.2500025,0.250695,0.2514124,0.2521518,0.2529228,0.2537258,0.2545202,0.2552187,0.255707,0.2558942,0.2557702,0.2554092,0.2549398,0.2544922,0.2541445,0.2539124,0.2537796,0.2537153,0.2537006,0.2537344,0.2538091,0.2539139,0.2540325,0.2541337,0.2541741,0.2541077,0.2538902,0.2535112,0.2530056,0.2524356,0.2518551,0.2512949,0.2507653,0.2502706,0.2498101,0.2493717,0.2489523,0.2485508,0.2481573,0.247767,0.2473802,0.2469888,0.2465849,0.2461656,0.2457327,0.2453005,0.2448816,0.2444876,0.244121,0.2437727,0.2434309,0.243094,0.2427643,0.2424286,0.2420723,0.241696,0.241301,0.240881,0.2404354,0.2399625,0.239461,0.2389367,0.2383985,0.2378653,0.2373544,0.2368664,0.2363924,0.2359487,0.2355643,0.2352499,0.2350125,0.2348551,0.2347747,0.2347784,0.2348772,0.2350736,0.2353806,0.2358211,0.2364298,0.2372476,0.2383115,0.2396436,0.2412545,0.2431712,0.2454457,0.2481451,0.2513431,0.2551053,0.2594667,0.2644171,0.2699025,0.2758669,0.282279,0.289089,0.2961929,0.3034374,0.3106347,0.3176102,0.3242472,0.3304985,0.3363318,0.3417078,0.3466007,0.3509899,0.3548612,0.3581991,0.3609914,0.3632475,0.3649863,0.3662309,0.3670031,0.3673269,0.3672374,0.3667786,0.3659987,0.3649402,0.3636367,0.3621351,0.3604869,0.358732,0.3569022,0.3550236,0.3531261,0.3512408,0.34938,0.3475471,0.3457466,0.343988,0.3422771,0.3406025,0.3389396,0.3372727,0.3356018,0.3339313,0.3322775,0.3306509,0.3290596,0.3275114,0.3260143,0.3246001,0.3232872,0.3220815,0.3209957,0.3200483,0.3192576,0.3186339,0.318199,0.3179752,0.3179682,0.3181722,0.3185976,0.3192496,0.3201192,0.3212154,0.3225535,0.3241464,0.3259899,0.3280751,0.3303961,0.3329456,0.335702,0.3386495,0.3417645,0.345027,0.3484292,0.3519312,0.3554892,0.3590561,0.3625866,0.3660229,0.369291,0.3723517,0.375194,0.377798,0.3801522,0.3822808,0.3842174,0.3859922,0.3876211,0.3891248,0.3905165,0.3918106,0.3930229,0.3941463,0.3951864,0.3961621,0.397085,0.3979516,0.3987731,0.3995757,0.4003527,0.4010814,0.4017558,0.4024,0.4030031,0.4035432,0.404006,0.4043886,0.4046801,0.4049026,0.4050691,0.4051455,0.4051147,0.4049795,0.4047495,0.4044242,0.4040353,0.4036125,0.4031655,0.4027137,0.4022686,0.4018466,0.4014524,0.4010643,0.4006568,0.4001975,0.39967,0.3990777,0.3984101,0.3977009,0.397009,0.3963511,0.3957107,0.3950735,0.3944261,0.3937906,0.3931568,0.392495,0.391781,0.3909775,0.3900983,0.3891645,0.3881703,0.3871317,0.3860791,0.3849937,0.3838839,0.382762,0.3816352,0.3805235,0.3794413,0.3783877,0.3773614,0.3763861,0.3754617,0.3745594,0.3736612,0.3727728,0.3718684,0.3709473,0.3700423,0.369177,0.3683702,0.3676527,0.3670479,0.3665917,0.3663175,0.366252,0.3664239,0.366897,0.3677192,0.3689106,0.3704845,0.37244,0.3747301,0.3773383,0.3803136,0.3836468,0.3872562,0.3910491,0.3949698,0.39898,0.4030551,0.4071895,0.4113551,0.4154885,0.4195123,0.423389,0.4270825,0.4305413,0.4336651,0.4363781,0.4385947,0.440349,0.4417596,0.4428805,0.4437668,0.4445048,0.4451695,0.4458317,0.4465323,0.447351,0.4483609,0.4496129,0.4510528,0.4525989,0.4542754,0.4560823,0.4579491,0.4596536,0.4608756,0.4612787,0.4607487,0.4595078,0.4580419,0.4567758,0.4558676,0.4553856,0.4552347,0.4552294,0.4553199,0.4554856,0.4556885,0.4559541,0.4563304,0.4567927,0.4573001,0.4578661,0.458421,0.458779,0.4586861,0.4580412,0.456912,0.4555092,0.4541631,0.4530394,0.4521776,0.4515354,0.4510014,0.450488,0.4499389,0.449405,0.4489539,0.4486214,0.4484153,0.448283,0.4482104,0.4482039,0.4482334,0.4482668,0.4482954,0.4483552,0.4484549,0.4486513,0.4490191,0.449534,0.450162,0.4508989,0.4518012,0.4528449,0.4539468,0.4551474,0.4564861,0.4579697,0.4596425,0.4614518,0.4633738,0.465437,0.4676547,0.4700237,0.4724616,0.4750166,0.4777615,0.4807084,0.4838082,0.4869758,0.4902048,0.4934597,0.4967474,0.5000497,0.5033703,0.5067818,0.510269,0.513772,0.5172904,0.5208009,0.5242924,0.52771,0.5308636,0.5337489,0.5365914,0.539427,0.5421404,0.5447395,0.5471158,0.5492387,0.5512284,0.5529929,0.5543826,0.5553488,0.555955,0.5563239,0.5564297,0.5561952
405,93.9700012,12.7700005,87.2300034,56.8499985,25.0699997,18.2099991,80.1800003,223.3899994,32.4300003,42.8699989,3.6099999,13.0299997,14.5100002,1.0626163,1.0679333,1.0724275,1.076184,1.0792027,1.0815642,1.0834215,1.0848781,1.0859994,1.0869286,1.0878136,1.0885985,1.089065,1.0890708,1.0886743,1.0879992,1.0870788,1.0858433,1.0842285,1.0822229,1.079877,1.077368,1.0748314,1.0722389,1.0695455,1.0667179,1.063778,1.0607283,1.0575187,1.054098,1.0504204,1.0464811,1.0422038,1.0375303,1.0324495,1.0269992,1.0212344,1.0151989,1.0088576,1.0022629,0.9954781,0.9886064,0.9817236,0.9748819,0.9680855,0.961396,0.9548483,0.948447,0.9421467,0.9359096,0.9296242,0.9232118,0.9165751,0.9096336,0.9023,0.8944878,0.8861801,0.8774115,0.8683358,0.8591653,0.8501688,0.8416407,0.8338711,0.8271036,0.8215002,0.8171023,0.8138084,0.811362,0.8093908,0.8074588,0.8051418,0.8020861,0.7980808,0.7930969,0.7872902,0.7809428,0.7743871,0.767934,0.7618254,0.7562048,0.7511216,0.7465445,0.7423984,0.7385844,0.7349997,0.7315531,0.7281966,0.7249135,0.7217124,0.7186251,0.7157307,0.7131265,0.710914,0.7092459,0.7082501,0.7080225,0.7086813,0.7103097,0.7129306,0.7165313,0.7210388,0.7262715,0.731974,0.7378244,0.7434745,0.7485784,0.7528354,0.7560427,0.7581121,0.7590705,0.7590486,0.7582474,0.7569339,0.7554238,0.7540398,0.7531165,0.752961,0.7538432,0.756002,0.7596341,0.7648745,0.7717974,0.7804069,0.7906533,0.8024431,0.8156666,0.8302027,0.8459128,0.8625967,0.8799446,0.8975055,0.9146608,0.9306449,0.9445628,0.9554686,0.9624705,0.9648416,0.9621261,0.9541614,0.9411104,0.9234245,0.9017903,0.8770361,0.8500249,0.8215768,0.7924069,0.7630802,0.7340081,0.7054768,0.677672,0.6507228,0.6247356,0.5998195,0.5761034,0.5537155,0.5327669,0.5133289,0.495423,0.4790304,0.4640747,0.450451,0.4380399,0.4267194,0.4163793,0.4069174,0.398251,0.3903178,0.3830706,0.3764668,0.3704696,0.3650418,0.3601342,0.3556952,0.3516677,0.3479875,0.3445868,0.3413985,0.3383621,0.3354159,0.3325086,0.3295973,0.3266592,0.3236905,0.3206965,0.3177024,0.3147447,0.3118579,0.30907,0.3063989,0.3038564,0.3014435,0.299155,0.2969822,0.2949092,0.2929147,0.2909801,0.28909,0.2872357,0.2854111,0.2836099,0.2818236,0.2800427,0.278268,0.2765059,0.2747698,0.2730725,0.2714199,0.2698148,0.2682573,0.2667402,0.2652551,0.2637932,0.2623479,0.2609131,0.2594894,0.2580782,0.256677,0.2552855,0.2538965,0.252517,0.2511495,0.2497918,0.2484439,0.2471088,0.245786,0.2444747,0.2431774,0.2418909,0.2406182,0.2393642,0.2381262,0.2369006,0.2356812,0.2344786,0.2332933,0.2321341,0.2309989,0.2298749,0.2287634,0.2276729,0.2266044,0.2255599,0.2245356,0.2235311,0.2225463,0.2215803,0.2206374,0.2197156,0.2188141,0.2179317,0.217069,0.2162286,0.2154138,0.2146203,0.2138426,0.2130777,0.2123239,0.2115798,0.2108483,0.2101279,0.2094176,0.2087172,0.2080292,0.2073526,0.2066838,0.2060236,0.205374,0.2047362,0.2041081,0.2034894,0.2028827,0.2022917,0.2017156,0.2011536,0.2006076,0.2000794,0.1995691,0.1990747,0.1985963,0.1981294,0.197677,0.1972409,0.1968201,0.1964156,0.1960252,0.1956473,0.1952786,0.1949175,0.1945607,0.1942047,0.1938537,0.1935035,0.1931532,0.1928019,0.1924494,0.1920966,0.1917457,0.1913921,0.1910398,0.1906888,0.190339,0.1899917,0.1896465,0.1893046,0.188964,0.1886268,0.188292,0.1879587,0.1876239,0.1872887,0.186951,0.1866141,0.1862791,0.1859463,0.1856164,0.1852894,0.1849674,0.18465,0.1843339,0.1840211,0.1837107,0.1834057,0.1831041,0.1828093,0.182523,0.1822399,0.181958,0.1816774,0.1813999,0.1811241,0.1808483,0.1805728,0.1802974,0.1800234,0.1797531,0.179487,0.1792243,0.1789635,0.1787093,0.1784621,0.1782184,0.1779799,0.1777431,0.1775177,0.1772966,0.1770663,0.1768119,0.1765247,0.1762084,0.175875,0.1748666,0.1746486,0.1744394,0.1742428,0.1740662,0.1739036,0.1737436,0.1735884,0.173455,0.1733451,0.1732501,0.1731701,0.1731047,0.173051,0.1730172,0.1730104,0.1730279,0.1730712,0.1731399,0.1732249,0.1733192,0.1734239,0.1735484,0.1736974,0.1738653,0.1740535,0.1742698,0.1745158,0.1747842,0.1750699,0.1753721,0.1756836,0.1759881,0.1762738,0.1765469,0.176814,0.1770714,0.1773241,0.1775912,0.177888,0.1782094,0.1785378,0.1788499,0.1791224,0.1793442,0.1795126,0.1796318,0.1797102,0.1797506,0.1797592,0.1797419,0.1797036,0.1796445,0.1795565,0.1794309,0.179256,0.1790271,0.1787488,0.1784241,0.1780567,0.1776535,0.1772253,0.1767818,0.1763393,0.1759122,0.175506,0.1751224,0.1747561,0.1743995,0.1740589,0.1737375,0.1734296,0.1731398,0.1728713,0.1726172,0.1723711,0.1721332,0.1719126,0.1717221,0.171561,0.1714162,0.1712813,0.1711563,0.1710374,0.1709215,0.1708076,0.170689,0.170559,0.1704143,0.1702589,0.1700925,0.169918,0.1697416,0.1695686,0.1694026,0.1692403,0.1690841,0.1689388,0.1688042,0.168681,0.1685674,0.1684653,0.1683782,0.168309,0.1682591,0.168227,0.1682142,0.1682197,0.1682391,0.1682746,0.1683312,0.1684137,0.1685273,0.1686754,0.1688585,0.1690679,0.1693042,0.16957,0.1698698,0.1702159,0.1706116,0.1710541,0.1715402,0.1720682,0.1726391,0.173247,0.1738783,0.1745259,0.1751921,0.1758732,0.1765534,0.1772138,0.1778502,0.1784611,0.179036,0.1795689,0.1800604,0.1805222,0.1809772,0.1814511,0.1819685,0.1825505,0.1832113,0.1839539,0.1847753,0.1856735,0.1866461,0.1876967,0.1888508,0.1901446,0.1916021,0.1932406,0.1950711,0.1970904,0.1992843,0.2016296,0.2040983,0.2066606,0.2092874,0.2119548,0.214643,0.2173259,0.2199706,0.2225391,0.2249948,0.227313,0.2294841,0.2315014,0.233363,0.2350748,0.2366396,0.2380646,0.23936,0.2405376,0.2416129,0.2426008,0.243517,0.2443743,0.2451769,0.2459218,0.2466069,0.2472338,0.2478052,0.2483206,0.2487765,0.2491703,0.249507,0.2497991,0.2500559,0.2502841,0.250493,0.2506851,0.2508548,0.2509939,0.2510958,0.2511571,0.2511724,0.2511418,0.2510636,0.2509326,0.250747,0.2505069,0.2502187,0.249894,0.249538,0.2491504,0.248733,0.248292,0.2478417,0.2473907,0.246945,0.2465164,0.2461113,0.2457306,0.245381,0.2450734,0.2448085,0.2445765,0.2443732,0.2441982,0.2440386,0.2438799,0.243716,0.2435524,0.2434022,0.2432716,0.2431624,0.2430775,0.2430271,0.2430203,0.2430505,0.2431054,0.2431839,0.2432783,0.2433726,0.2434622,0.2435416,0.2435985,0.2436317,0.2436358,0.2435919,0.2434863,0.2433223,0.2431058,0.2428305,0.2424964,0.2421089,0.2416815,0.241229,0.2407497,0.2402387,0.2397095,0.2391776,0.2386497,0.2381297,0.2376173,0.2371076,0.2365927,0.2360736,0.235554,0.235033,0.2345168,0.2340097,0.2335156,0.2330346,0.2325622,0.2321078,0.231676,0.2312655,0.2308822,0.2305379,0.2302334,0.2299642,0.2297264,0.2295208,0.2293556,0.2292438,0.2292003,0.2292358,0.2293486,0.2295262,0.2297652,0.2300767,0.2304736,0.2309676,0.2315715,0.2322951,0.2331374,0.2340973,0.235177,0.2363805,0.2377021,0.2391099,0.2405584,0.2419942,0.2433723,0.2446762,0.2459134,0.2470896,0.248197,0.2492219,0.2501519,0.2509725,0.2516872,0.2523338,0.2529557,0.2535704,0.2541879,0.2548151,0.2554512,0.2561048,0.2567759,0.2574288,0.2579836,0.2583387,0.2584152,0.2582051,0.2577801,0.257268,0.2567943,0.256427,0.256177,0.2560279,0.2559442,0.2559014,0.2558983,0.2559281,0.2559806,0.2560436,0.2560888,0.2560708,0.2559453,0.2556784,0.2552692,0.2547549,0.2541898,0.2536139,0.2530521,0.2525188,0.2520278,0.2515871,0.2511806,0.2507958,0.2504311,0.2500822,0.2497415,0.2494049,0.2490668,0.248721,0.2483625,0.2479901,0.2476168,0.2472552,0.2469137,0.2465962,0.2463007,0.246014,0.2457247,0.2454297,0.2451222,0.2447995,0.2444675,0.2441259,0.2437613,0.2433668,0.242944,0.2424981,0.2420362,0.2415645,0.2410968,0.2406436,0.240205,0.2397794,0.2393827,0.2390345,0.2387415,0.2385147,0.2383608,0.2382787,0.2382773,0.2383675,0.2385488,0.2388267,0.2392172,0.2397529,0.2404729,0.24141,0.2425818,0.2439959,0.2456783,0.2476811,0.2500676,0.2528995,0.2562299,0.2600961,0.2645006,0.2694015,0.2747549,0.2805414,0.2867243,0.293212,0.2998643,0.3065022,0.3129523,0.3191019,0.3249114,0.3303451,0.3353499,0.3398979,0.3439762,0.3475708,0.3506669,0.3532563,0.3553479,0.3569557,0.3581045,0.3588254,0.3591486,0.3591016,0.3587156,0.3580318,0.3570949,0.3559432,0.3546209,0.3531667,0.3516105,0.3499858,0.3483237,0.3466551,0.3450106,0.3433969,0.3418102,0.3402564,0.3387486,0.3372877,0.3358541,0.3344218,0.3329808,0.3315359,0.3300902,0.3286546,0.3272351,0.3258427,0.3244877,0.323173,0.3219203,0.3207449,0.319658,0.3186744,0.3178099,0.3170839,0.31651,0.316106,0.3158837,0.3158442,0.3159863,0.3163264,0.3168746,0.317625,0.3185824,0.319757,0.3211646,0.3228064,0.3246762,0.3267669,0.3290641,0.331544,0.3342064,0.337043,0.3400314,0.3431543,0.3463684,0.3496361,0.3529235,0.3561938,0.3593821,0.3623959,0.3651828,0.3677296,0.3700254,0.3720755,0.3739142,0.375572,0.3770741,0.3784381,0.3796836,0.3808221,0.3818735,0.382866,0.3838062,0.384705,0.3855697,0.3863983,0.3871861,0.3879495,0.3887187,0.3894881,0.3902286,0.3909205,0.3915801,0.3922034,0.3927876,0.3933323,0.3938302,0.3942517,0.3945975,0.3948764,0.3950717,0.3951793,0.3951966,0.3951301,0.394984,0.3947914,0.3945785,0.3943491,0.3941166,0.3938945,0.3937076,0.3935626,0.3934317,0.3932825,0.3930733,0.3927761,0.3923901,0.3919204,0.3914227,0.3909527,0.3905032,0.3900556,0.3896199,0.3891884,0.3887625,0.3883215,0.3878387,0.3872848,0.3866187,0.3858695,0.3850775,0.3842427,0.3833664,0.3824551,0.3814823,0.3804737,0.379461,0.3784499,0.3774467,0.3764627,0.3755034,0.3745684,0.3736819,0.3728512,0.372049,0.3712508,0.3704585,0.3696497,0.3688244,0.3679994,0.3671782,0.3663859,0.3656802,0.3650941,0.3646498,0.364372,0.3642925,0.3644482,0.3649064,0.3657042,0.3668399,0.3683255,0.3701856,0.3723912,0.3749156,0.3777841,0.3809698,0.3843875,0.3879589,0.3916539,0.3954433,0.3992777,0.403134,0.407012,0.4108865,0.4146788,0.4183224,0.4217588,0.4249277,0.4277483,0.4302025,0.4322551,0.4339415,0.4353644,0.4365668,0.4375913,0.4385132,0.439393,0.4402888,0.4412456,0.4423452,0.4436541,0.4452002,0.4468979,0.4486475,0.4504489,0.452262,0.4539921,0.4554295,0.4563101,0.4563848,0.4556103,0.4542306,0.4527115,0.4514292,0.4504896,0.4499563,0.4497819,0.4498082,0.4499581,0.4501773,0.4504265,0.4507564,0.4512413,0.4518449,0.4524611,0.4530427,0.4535201,0.453749,0.4535325,0.4528252,0.451696,0.4502963,0.4489136,0.4477315,0.4468223,0.4461325,0.4455269,0.4449355,0.4443299,0.4437502,0.4432288,0.4427707,0.4423968,0.4421149,0.4419562,0.4419235,0.4419556,0.4419939,0.4420249,0.4420857,0.4421609,0.44227,0.4424838,0.4428149,0.4432838,0.4439131,0.4447136,0.4455975,0.4464988,0.4475327,0.4487566,0.4501052,0.4515747,0.4531568,0.454875,0.4567444,0.4587701,0.4609839,0.4633099,0.4657599,0.4684009,0.4712518,0.4742424,0.4772677,0.4803245,0.4833893,0.486482,0.4896308,0.4928953,0.496289,0.4996631,0.5029514,0.5062493,0.5095602,0.5128533,0.5160803,0.5190599,0.5217728,0.5244017,0.5269462,0.5293176,0.5316077,0.5337988,0.535858,0.5377775,0.5394087,0.5407162,0.5417054,0.5423262,0.5426376,0.5427045,0.5425378
406,94.1299973,12.71,87.2900009,53.7400017,25.8799992,18.2199993,80.9000015,210.1300049,31.1000004,39.0499992,3.9100001,13.3299999,14.79,0.9969328,1.0008538,1.003868,1.0061581,1.0078443,1.0090126,1.0097276,1.010112,1.010366,1.0106447,1.0108973,1.0108771,1.0103965,1.0095162,1.0084383,1.0072271,1.0057691,1.0039587,1.0018226,0.9994171,0.9967497,0.99391,0.9909811,0.9879342,0.9847581,0.9814493,0.978066,0.9746946,0.9713572,0.9679943,0.9645229,0.9609399,0.9572061,0.9532982,0.9491858,0.944827,0.9402012,0.9353111,0.9300831,0.9245256,0.918671,0.9126071,0.9063896,0.9000234,0.8934427,0.886646,0.8796241,0.8723634,0.8648381,0.8570557,0.8489599,0.8405412,0.8317775,0.8226558,0.8131596,0.8032874,0.7931062,0.7827091,0.7722709,0.7619881,0.7520874,0.7428154,0.7344176,0.7270882,0.7209365,0.7159685,0.7120754,0.7090188,0.7064667,0.7040388,0.701373,0.698177,0.6942942,0.6897241,0.6846064,0.6791704,0.6736869,0.6684163,0.6635683,0.6592725,0.6555791,0.652468,0.6498842,0.6477543,0.6459935,0.6445101,0.6432401,0.6421385,0.6411741,0.6403292,0.6396262,0.6390976,0.6387706,0.6387237,0.6390176,0.6396902,0.6408138,0.6424449,0.6446036,0.6472993,0.6505072,0.6541247,0.6580075,0.6619688,0.6658067,0.6693144,0.6723033,0.6746403,0.6762605,0.67717,0.6774454,0.6772143,0.6766627,0.6760294,0.6755767,0.6756058,0.6764187,0.6782961,0.6814807,0.6861406,0.6923305,0.6999848,0.7089167,0.7188672,0.7295649,0.7408031,0.7524766,0.7645842,0.7771674,0.7902175,0.8035941,0.8169573,0.8297601,0.8412558,0.8505831,0.8568792,0.8593885,0.8575488,0.8509846,0.8395343,0.8232489,0.8024103,0.7775306,0.7493265,0.7186816,0.6865686,0.6539467,0.621676,0.5904634,0.5608241,0.5330909,0.5074386,0.483917,0.4624929,0.4430698,0.4255168,0.4096833,0.3954149,0.3825717,0.3710095,0.3605977,0.3512211,0.342776,0.3351723,0.3283199,0.3221376,0.3165558,0.311514,0.3069552,0.3028326,0.2991053,0.2957278,0.2926587,0.2898564,0.2872753,0.2848676,0.2825861,0.2803897,0.278234,0.2760798,0.273892,0.2716524,0.2693607,0.2670234,0.2646654,0.2623219,0.2600258,0.2578022,0.2556676,0.2536344,0.2517066,0.2498817,0.2481523,0.246504,0.2449174,0.2433766,0.2418683,0.2403854,0.2389218,0.2374713,0.2360271,0.2345812,0.233134,0.2316905,0.2302625,0.2288618,0.2274944,0.2261642,0.2248719,0.2236099,0.2223685,0.2211386,0.2199141,0.21869,0.2174672,0.2162479,0.2150308,0.2138167,0.2125985,0.2113835,0.2101742,0.2089689,0.2077681,0.2065753,0.2053907,0.2042144,0.2030485,0.2018896,0.2007419,0.1996117,0.1984963,0.1973914,0.1962908,0.1952057,0.1941375,0.1930951,0.1920765,0.1910682,0.190071,0.1890935,0.1881371,0.1872046,0.1862924,0.1854004,0.1845282,0.1836742,0.1828422,0.1820304,0.1812387,0.180466,0.1797125,0.1789798,0.1782701,0.1775796,0.1769036,0.1762398,0.1755864,0.1749419,0.1743084,0.1736849,0.1730711,0.1724664,0.1718729,0.1712899,0.1707145,0.1701479,0.1695911,0.1690446,0.1685068,0.1679778,0.1674607,0.1669591,0.1664722,0.1659987,0.1655411,0.1651014,0.16468,0.1642746,0.1638846,0.1635057,0.1631409,0.1627919,0.1624575,0.1621395,0.1618352,0.161543,0.1612598,0.1609844,0.1607124,0.1604398,0.1601703,0.1598998,0.1596282,0.1593545,0.159078,0.1587992,0.1585204,0.1582372,0.1579535,0.1576699,0.1573865,0.157105,0.1568245,0.1565461,0.1562681,0.1559926,0.1557185,0.1554445,0.1551686,0.1548921,0.154613,0.1543344,0.1540571,0.153781,0.1535059,0.1532321,0.1529619,0.1526956,0.15243,0.1521667,0.1519053,0.1516492,0.1513967,0.1511499,0.1509095,0.1506708,0.1504333,0.1501977,0.1499658,0.1497354,0.1495043,0.1492729,0.149041,0.1488097,0.1485814,0.1483569,0.1481352,0.1479146,0.147699,0.1474882,0.147278,0.1470677,0.1468537,0.1466485,0.1464499,0.1462486,0.1460316,0.1457901,0.1455271,0.1452509,0.1443641,0.14419,0.1440183,0.1438614,0.1437306,0.1436116,0.1434857,0.1433579,0.1432505,0.1431656,0.1430948,0.1430399,0.1430051,0.1429924,0.143013,0.1430709,0.1431538,0.1432571,0.1433819,0.1435204,0.1436692,0.1438338,0.1440198,0.1442282,0.144456,0.1447044,0.1449776,0.1452783,0.145603,0.1459469,0.146308,0.1466798,0.147047,0.1473931,0.1477224,0.1480473,0.1483667,0.1486793,0.149001,0.1493489,0.1497178,0.1500878,0.1504385,0.1507526,0.1510182,0.1512256,0.1513753,0.1514781,0.1515406,0.1515734,0.1515805,0.1515594,0.1515104,0.1514325,0.1513208,0.1511611,0.1509461,0.1506793,0.1503648,0.1500082,0.1496162,0.1491983,0.1487653,0.1483322,0.1479114,0.1475111,0.1471376,0.1467864,0.1464466,0.1461197,0.1458082,0.1455078,0.1452223,0.1449559,0.1447061,0.1444676,0.1442386,0.1440266,0.1438435,0.1436901,0.1435555,0.1434329,0.1433205,0.1432142,0.143112,0.1430117,0.1429042,0.142786,0.1426587,0.1425228,0.1423689,0.1421993,0.1420274,0.1418626,0.1417074,0.1415552,0.1414062,0.1412671,0.1411414,0.141032,0.140936,0.140854,0.1407874,0.1407365,0.1407052,0.1406956,0.1407064,0.1407356,0.1407818,0.1408468,0.1409352,0.1410546,0.1412103,0.1414031,0.1416319,0.1418885,0.1421759,0.1424991,0.1428627,0.1432749,0.1437362,0.1442477,0.1448086,0.145409,0.1460412,0.1467052,0.1474008,0.1481216,0.1488596,0.1496053,0.1503426,0.1510564,0.1517463,0.1524086,0.1530305,0.1536078,0.1541428,0.1546472,0.1551471,0.1556733,0.1562546,0.1569106,0.1576521,0.1584838,0.1594084,0.1604286,0.1615432,0.162753,0.1640808,0.1655556,0.1671905,0.1689986,0.1709917,0.173165,0.1755006,0.1779759,0.180565,0.1832352,0.1859576,0.1887138,0.1914853,0.1942404,0.1969428,0.1995562,0.2020472,0.2043922,0.2065819,0.2086106,0.2104755,0.212183,0.2137408,0.2151598,0.2164498,0.2176224,0.2186928,0.2196751,0.2205833,0.2214283,0.2222177,0.2229519,0.2236274,0.2242439,0.2248013,0.2252964,0.2257245,0.2260846,0.2263841,0.2266352,0.2268488,0.2270359,0.2272045,0.227355,0.227485,0.2275876,0.2276557,0.2276852,0.2276713,0.2276165,0.2275182,0.2273694,0.2271706,0.2269223,0.226629,0.2263019,0.2259466,0.2255607,0.2251431,0.2247009,0.2242509,0.2238024,0.223358,0.222925,0.2225108,0.2221249,0.2217745,0.2214641,0.2211924,0.2209516,0.22074,0.2205591,0.2203978,0.2202421,0.2200858,0.2199334,0.2197948,0.2196732,0.2195707,0.2194926,0.219449,0.2194443,0.2194695,0.2195199,0.2196,0.2196963,0.219787,0.2198681,0.2199385,0.2199914,0.2200223,0.2200202,0.2199687,0.2198587,0.2196913,0.219469,0.2191902,0.2188624,0.2184887,0.218073,0.2176234,0.2171445,0.2166445,0.2161337,0.2156175,0.2151014,0.2145893,0.2140788,0.2135662,0.2130495,0.2125365,0.2120299,0.2115188,0.2110024,0.21049,0.209996,0.209524,0.2090642,0.2086194,0.2081919,0.2077849,0.2074102,0.2070783,0.2067857,0.2065249,0.2062916,0.2060912,0.2059368,0.2058384,0.2058044,0.2058451,0.2059633,0.2061477,0.2063948,0.2067156,0.2071211,0.2076204,0.2082203,0.2089266,0.2097421,0.2106688,0.2117057,0.2128526,0.2141072,0.2154483,0.2168353,0.2182145,0.2195356,0.2207755,0.2219404,0.2230404,0.2240717,0.225022,0.2258836,0.2266513,0.22733,0.2279539,0.2285665,0.229185,0.2298165,0.2304671,0.2311327,0.2318099,0.2324866,0.2331298,0.2336758,0.2340397,0.2341555,0.2340194,0.2336933,0.2332848,0.2329022,0.2326066,0.2324049,0.2322826,0.2322108,0.2321685,0.2321567,0.2321741,0.2322154,0.2322664,0.2323002,0.2322822,0.2321735,0.2319397,0.23158,0.2311244,0.2306198,0.2301066,0.2296106,0.2291423,0.2287109,0.2283195,0.227951,0.2275985,0.2272645,0.2269421,0.2266255,0.2263133,0.2259946,0.2256601,0.2253089,0.224948,0.224591,0.2242452,0.2239177,0.2236124,0.223328,0.2230519,0.2227738,0.2224932,0.2222021,0.2218918,0.2215645,0.2212215,0.2208569,0.2204684,0.220052,0.2196079,0.2191483,0.2186859,0.2182329,0.2177954,0.2173711,0.2169577,0.2165765,0.2162507,0.215981,0.2157735,0.2156412,0.2155856,0.2156086,0.2157167,0.215913,0.2162133,0.2166398,0.2172219,0.2179952,0.2189896,0.2202252,0.2217157,0.22349,0.225601,0.2281148,0.2311043,0.2346313,0.238728,0.2433854,0.2485404,0.2541224,0.2600963,0.2664195,0.2729928,0.2796678,0.2862749,0.2926638,0.2987382,0.3044632,0.3098062,0.3147197,0.3191747,0.3231577,0.3266622,0.3296722,0.3321734,0.3341758,0.3357,0.3367689,0.3374026,0.337629,0.3374889,0.3370214,0.336259,0.3352401,0.3340082,0.33261,0.3310822,0.3294551,0.3277603,0.3260264,0.3242868,0.3225722,0.3208866,0.3192322,0.3176152,0.3160386,0.3145032,0.3130022,0.3115155,0.3100284,0.3085396,0.3070484,0.3055646,0.3040979,0.3026614,0.3012637,0.2999054,0.2986107,0.2973944,0.2962641,0.2952327,0.2943145,0.2935285,0.2928884,0.2924155,0.2921286,0.2920284,0.292105,0.2923687,0.2928334,0.2934982,0.2943659,0.2954427,0.2967439,0.2982735,0.3000275,0.3019988,0.3041793,0.3065541,0.3091178,0.3118474,0.3147119,0.3177,0.3207867,0.3239425,0.3271189,0.3302659,0.333323,0.3362095,0.3388765,0.3413117,0.3435078,0.3454674,0.3472139,0.3487749,0.3501867,0.3514749,0.3526608,0.35376,0.3547894,0.3557607,0.3566604,0.3574973,0.3582951,0.359065,0.3598054,0.3605265,0.3612472,0.3619588,0.3626446,0.3632941,0.3639162,0.3644984,0.3650306,0.3655067,0.3659292,0.3662853,0.3665836,0.3668313,0.367005,0.3670961,0.367102,0.3670248,0.3668608,0.3666425,0.366401,0.3661457,0.3658959,0.3656585,0.3654401,0.3652467,0.3650713,0.3648948,0.3646718,0.3643699,0.363993,0.3635457,0.3630736,0.3626266,0.3622021,0.3617844,0.3613747,0.3609665,0.3605767,0.3601843,0.3597478,0.3592319,0.3585952,0.3578723,0.3571135,0.3563082,0.3554443,0.3545442,0.3536044,0.3526457,0.3516749,0.3506836,0.3496867,0.3487105,0.3477668,0.3468532,0.3459872,0.3451749,0.3444004,0.3436472,0.3429157,0.3421812,0.3414368,0.3406909,0.3399536,0.3392572,0.3386573,0.3381898,0.3378786,0.337739,0.3377956,0.338084,0.3386681,0.3395794,0.34081,0.3423606,0.344253,0.3464736,0.3490024,0.3518394,0.3549353,0.3582186,0.3616254,0.3651162,0.368648,0.3721784,0.3757088,0.3792515,0.3827767,0.3862111,0.3895107,0.3926397,0.3955576,0.3981971,0.400528,0.4024834,0.404085,0.4054429,0.4066041,0.4076073,0.4085181,0.4093784,0.4102254,0.411093,0.4120718,0.4132392,0.4146178,0.4161111,0.4176238,0.4191833,0.4207852,0.4223617,0.4237335,0.4246719,0.4249309,0.4244202,0.4233151,0.4220247,0.4209161,0.420123,0.4197146,0.4196215,0.4196781,0.4198218,0.4200223,0.4202472,0.4205318,0.4209353,0.4214185,0.4218992,0.4223601,0.422742,0.4229227,0.4227313,0.422109,0.4210941,0.4198233,0.4185672,0.417476,0.4166069,0.4159323,0.4153383,0.4147452,0.4141296,0.4135612,0.4130813,0.4126856,0.4123814,0.4121515,0.4120025,0.4119354,0.411911,0.4118936,0.4118671,0.4118538,0.4118597,0.4119262,0.4121148,0.4124381,0.4129104,0.4135168,0.4142635,0.4151321,0.4161049,0.4172228,0.4184564,0.4197744,0.4212309,0.4228013,0.4244873,0.4263259,0.4283314,0.4305099,0.432781,0.4351722,0.4377397,0.4404941,0.4433764,0.4462996,0.4492779,0.4522805,0.4552988,0.4583147,0.4613464,0.4644589,0.4676217,0.4707922,0.4739846,0.4771699,0.4803681,0.4835662,0.4865428,0.4892119,0.4917592,0.4942389,0.4965898,0.4988708,0.500979,0.5028648,0.5046234,0.5061696,0.5074031,0.5083005,0.508892,0.5092582,0.5093948,0.5092693
407,94.1600037,11.5100002,88.4899979,51.2700005,22.8899994,14.5699997,81.6900024,231.7700043,33.3499985,41.8300018,3.5599999,13.0600004,14.4300003,0.9907237,0.9950674,0.9986072,1.0014073,1.0035791,1.005334,1.006831,1.0080862,1.009071,1.0098438,1.0104572,1.0107967,1.0106913,1.0101256,1.0092571,1.0081877,1.0068498,1.00515,1.0031458,1.0009696,0.9986815,0.9963349,0.9939231,0.9913581,0.9886445,0.9858211,0.982939,0.9800367,0.9771064,0.9740855,0.9708797,0.967454,0.9637502,0.9597674,0.9555171,0.9509922,0.9461952,0.9411479,0.9358048,0.9302121,0.9244269,0.9185354,0.9125739,0.9065377,0.9003812,0.8941276,0.8877769,0.8813244,0.8747448,0.8680118,0.8610146,0.8536993,0.8460154,0.8379284,0.8293955,0.8203794,0.8109116,0.8010619,0.7909983,0.7809268,0.7711043,0.7618315,0.7534212,0.746132,0.740118,0.7354084,0.7319014,0.7293491,0.7273852,0.7255703,0.7234626,0.7206875,0.7170241,0.7124366,0.7070625,0.7011592,0.6950429,0.6890207,0.6833385,0.6781486,0.6735124,0.6694103,0.6657745,0.6625076,0.6595026,0.656661,0.6539285,0.6512818,0.6487215,0.6462766,0.6440296,0.6420777,0.6405128,0.6394757,0.6390858,0.6394318,0.6406255,0.6427463,0.6458155,0.6498196,0.6546833,0.660224,0.6661907,0.6722708,0.6781278,0.6834269,0.6878745,0.6912677,0.693512,0.6946254,0.6947327,0.6940334,0.6927971,0.6913486,0.690027,0.689191,0.6891832,0.6903138,0.6928483,0.6969838,0.7028321,0.7104242,0.7196965,0.7305094,0.7426782,0.7560291,0.7704216,0.7857466,0.8018746,0.818593,0.8355601,0.8522649,0.868032,0.8820295,0.8933437,0.9010821,0.9044836,0.9030245,0.8964385,0.8847539,0.8682733,0.8475474,0.8233141,0.7964143,0.7677135,0.7380193,0.7080129,0.6782191,0.6490147,0.620643,0.5932598,0.5669742,0.5418789,0.5180705,0.4956356,0.4746433,0.4551297,0.437095,0.4205137,0.4053192,0.39143,0.3787569,0.3672069,0.3566923,0.347124,0.3384219,0.3305189,0.3233578,0.3168837,0.3110484,0.3058053,0.3010986,0.2968722,0.2930669,0.2896188,0.2864619,0.2835318,0.2807717,0.2781238,0.2755395,0.2729771,0.2704127,0.2678393,0.265257,0.2626842,0.2601508,0.2576871,0.2553176,0.253057,0.2509128,0.2488833,0.2469621,0.245141,0.2434066,0.2417407,0.2401264,0.2385478,0.2369954,0.2354626,0.2339446,0.2324357,0.2309273,0.2294192,0.2279162,0.2264322,0.2249815,0.2235703,0.2221994,0.2208661,0.2195631,0.2182833,0.2170196,0.215766,0.2145159,0.213269,0.2120269,0.2107882,0.2095541,0.2083173,0.2070848,0.2058593,0.204639,0.2034241,0.2022175,0.2010194,0.19983,0.1986516,0.1974805,0.19632,0.1951758,0.1940461,0.1929279,0.1918151,0.1907189,0.1896394,0.1885856,0.1875549,0.1865344,0.1855255,0.1845375,0.1835717,0.1826299,0.181708,0.1808058,0.1799239,0.179062,0.1782244,0.1774086,0.176613,0.175837,0.1750816,0.1743483,0.1736386,0.1729482,0.1722719,0.1716068,0.1709508,0.1703025,0.1696642,0.1690348,0.1684133,0.1677993,0.1671952,0.1666005,0.1660131,0.1654343,0.1648655,0.1643077,0.1637591,0.1632199,0.1626935,0.162184,0.1616908,0.1612127,0.160752,0.1603105,0.1598889,0.1594857,0.1591009,0.1587305,0.1583776,0.1580442,0.1577294,0.1574348,0.1571578,0.1568959,0.1566447,0.1564018,0.1561626,0.155923,0.1556859,0.1554462,0.1552025,0.1549534,0.1546986,0.1544388,0.1541764,0.1539071,0.1536354,0.1533616,0.1530852,0.1528078,0.1525289,0.1522501,0.1519699,0.1516906,0.1514119,0.1511331,0.150852,0.1505692,0.1502824,0.149995,0.1497083,0.1494228,0.1491391,0.1488575,0.14858,0.1483061,0.1480324,0.1477611,0.1474919,0.1472281,0.1469677,0.1467132,0.1464663,0.1462226,0.1459806,0.1457401,0.1455025,0.1452662,0.1450292,0.144791,0.144551,0.1443109,0.1440739,0.1438414,0.1436123,0.143384,0.1431608,0.1429431,0.1427273,0.1425138,0.1422975,0.1420888,0.1418843,0.1416757,0.1414514,0.1412029,0.1409331,0.140651,0.13984,0.1396711,0.139503,0.1393426,0.1392056,0.1390839,0.1389576,0.1388276,0.1387152,0.1386252,0.138551,0.1384946,0.138464,0.138462,0.1384943,0.1385648,0.1386655,0.1387912,0.1389412,0.1391106,0.1392969,0.1395023,0.1397352,0.1400034,0.1403015,0.1406222,0.1409698,0.1413507,0.1417597,0.1421899,0.1426397,0.1431006,0.1435544,0.1439869,0.1444048,0.1448178,0.1452236,0.1456289,0.146057,0.1465229,0.1470167,0.1475153,0.1479953,0.1484364,0.1488227,0.1491408,0.1493906,0.1495826,0.1497221,0.1498164,0.1498684,0.1498782,0.1498505,0.1497849,0.149674,0.1495018,0.1492626,0.1489657,0.1486185,0.1482232,0.1477797,0.1472999,0.1468065,0.1463221,0.1458575,0.1454136,0.1449902,0.1445845,0.1441937,0.1438234,0.1434728,0.1431362,0.1428198,0.1425292,0.1422592,0.1420018,0.1417548,0.1415269,0.141333,0.1411749,0.1410379,0.1409111,0.1407898,0.14067,0.1405528,0.1404386,0.1403183,0.1401855,0.1400388,0.139879,0.1397017,0.1395086,0.1393088,0.1391126,0.1389266,0.1387482,0.1385801,0.1384242,0.1382785,0.1381474,0.1380335,0.137938,0.1378624,0.1378091,0.1377805,0.1377742,0.1377895,0.1378277,0.1378873,0.1379699,0.1380805,0.1382269,0.1384156,0.13865,0.13893,0.1392473,0.1396042,0.1400037,0.1404492,0.1409508,0.1415104,0.1421264,0.142798,0.1435224,0.1442954,0.1451114,0.145964,0.1468469,0.1477518,0.1486659,0.1495711,0.1504484,0.1512903,0.1520893,0.1528313,0.1535067,0.1541151,0.1546747,0.1552205,0.1557888,0.1564103,0.1571058,0.1578905,0.1587763,0.1597712,0.1608798,0.1621012,0.1634386,0.1649195,0.1665794,0.1684397,0.1705201,0.1728323,0.1753705,0.1781193,0.1810539,0.1841475,0.187372,0.1906948,0.1940802,0.1974949,0.2009014,0.2042563,0.207514,0.210635,0.213588,0.2163558,0.2189294,0.2213021,0.2234772,0.225462,0.2272687,0.2289081,0.23039,0.2317316,0.2329539,0.2340759,0.2351112,0.2360674,0.2369438,0.2377397,0.2384598,0.2391092,0.2396885,0.2401931,0.2406206,0.240977,0.2412714,0.2415092,0.241699,0.2418541,0.2419813,0.2420774,0.2421341,0.2421473,0.242115,0.2420325,0.241906,0.241738,0.2415217,0.2412554,0.2409405,0.2405824,0.240192,0.239776,0.2393323,0.2388607,0.2383721,0.237885,0.237406,0.2369355,0.2364817,0.2360545,0.2356626,0.2353131,0.2350132,0.2347603,0.2345436,0.2343634,0.2342236,0.2341124,0.2340145,0.233923,0.2338387,0.2337676,0.2337131,0.2336779,0.2336652,0.2336829,0.2337359,0.2338138,0.2339086,0.2340239,0.2341472,0.2342597,0.2343606,0.2344463,0.2345051,0.2345302,0.2345103,0.234432,0.2342921,0.2340929,0.2338296,0.2334953,0.2330993,0.232649,0.2321537,0.2316203,0.2310454,0.2304327,0.2297999,0.2291594,0.2285168,0.2278767,0.227238,0.226594,0.2259415,0.2252868,0.2246303,0.223967,0.2233012,0.2226356,0.2219822,0.2213528,0.2207409,0.2201432,0.2195606,0.2189996,0.2184703,0.217982,0.2175336,0.21712,0.2167404,0.2164006,0.2161096,0.2158746,0.2157069,0.2156184,0.2156062,0.215655,0.2157639,0.215949,0.2162262,0.216607,0.2171019,0.2177231,0.2184781,0.219371,0.2204049,0.2215832,0.2229002,0.2243248,0.2258129,0.2273121,0.2287722,0.2301666,0.2314941,0.2327532,0.2339286,0.2350021,0.2359662,0.2368137,0.2375448,0.2381893,0.2387883,0.2393663,0.2399449,0.2405408,0.2411574,0.2418032,0.2424744,0.2431374,0.2437253,0.2441492,0.2443365,0.244278,0.2440347,0.2437143,0.2434225,0.2432152,0.2431014,0.2430743,0.2431078,0.2431779,0.24328,0.243404,0.2435353,0.2436595,0.243758,0.2437985,0.243738,0.2435371,0.2431912,0.2427348,0.2422217,0.2416901,0.2411609,0.240644,0.2401511,0.2396914,0.2392512,0.2388199,0.2383972,0.2379789,0.23756,0.2371361,0.2366989,0.2362458,0.23578,0.2353098,0.234849,0.2344031,0.2339772,0.2335772,0.2332029,0.2328403,0.2324787,0.2321192,0.2317581,0.2313898,0.2310112,0.2306161,0.2301922,0.2297344,0.2292429,0.2287234,0.2281916,0.2276614,0.2271417,0.2266368,0.2261483,0.2256771,0.2252386,0.2248481,0.2245114,0.224246,0.2240682,0.2239749,0.2239619,0.2240327,0.2241925,0.2244606,0.22486,0.2254197,0.226175,0.2271549,0.2283772,0.2298563,0.2316233,0.2337272,0.2362298,0.239206,0.2427191,0.2468014,0.2514513,0.2566256,0.262273,0.268369,0.2748805,0.2817164,0.2887216,0.2957078,0.3025082,0.309015,0.3151771,0.3209512,0.326295,0.3311849,0.3355964,0.3395002,0.342871,0.3457035,0.3480117,0.3498044,0.3510946,0.3519058,0.3522693,0.3522226,0.3518072,0.351068,0.3500536,0.3488034,0.3473559,0.3457508,0.3440281,0.3422295,0.3403832,0.3385127,0.3366488,0.3348082,0.3329984,0.3312208,0.3294801,0.3277817,0.3261164,0.3244627,0.3228103,0.3211639,0.3195235,0.317899,0.3162981,0.3147309,0.3132066,0.3117325,0.3103446,0.3090674,0.3079055,0.3068648,0.305956,0.3051976,0.3046108,0.3042253,0.3040558,0.3040963,0.3043429,0.3048123,0.3055111,0.3064322,0.3075854,0.3089832,0.3106334,0.312531,0.3146695,0.3170451,0.3196503,0.3224588,0.3254536,0.3286132,0.3319159,0.3353525,0.3388901,0.3424897,0.3460998,0.3496786,0.3531785,0.3565255,0.3596686,0.3625917,0.3652857,0.3677552,0.3700244,0.3721044,0.3740102,0.3757649,0.3773955,0.378914,0.3803309,0.3816557,0.3828782,0.3840102,0.3850752,0.3860797,0.3870105,0.387875,0.3887101,0.3895192,0.3902782,0.3909721,0.3916167,0.3921968,0.392695,0.3931143,0.3934648,0.3937309,0.3939205,0.3940398,0.394065,0.3939879,0.3938099,0.3935351,0.3931573,0.3927084,0.3922214,0.3917025,0.3911664,0.3906261,0.3901009,0.3896002,0.389107,0.3885953,0.3880303,0.3873912,0.3866791,0.3858981,0.3850946,0.384305,0.3835192,0.3827354,0.3819743,0.3812317,0.3805104,0.3797851,0.3790322,0.3782381,0.377364,0.3764244,0.375449,0.3744307,0.3733675,0.3722757,0.3711435,0.369992,0.3688357,0.3676722,0.3665167,0.365389,0.3642879,0.363212,0.3621949,0.3612439,0.3603243,0.3594151,0.3585325,0.3576588,0.3567832,0.3559207,0.3550858,0.3542964,0.3535902,0.3530025,0.3525764,0.3523398,0.3523181,0.3525469,0.3530822,0.3539512,0.3551607,0.3567287,0.358673,0.360963,0.3635812,0.366562,0.3698799,0.373456,0.3772249,0.3811621,0.3852317,0.3893804,0.3935895,0.3978519,0.4021172,0.4062903,0.4103171,0.4141578,0.4177554,0.4210016,0.4238224,0.426133,0.4279611,0.4294274,0.4305797,0.4314429,0.432075,0.4325437,0.4329321,0.4333038,0.4337682,0.4344316,0.4353471,0.4364521,0.4376884,0.4390868,0.4406109,0.4421615,0.4435338,0.4444858,0.4448045,0.444451,0.443597,0.4425944,0.4417427,0.4411317,0.4408264,0.4407708,0.440822,0.4409415,0.441083,0.4411905,0.4413189,0.441564,0.4419111,0.4422833,0.4426548,0.4429618,0.4430813,0.4428532,0.4422322,0.4412557,0.4400547,0.4389045,0.4379493,0.4372048,0.4366117,0.4360695,0.4355196,0.4349425,0.4344085,0.4339539,0.4335707,0.4332837,0.4330877,0.4329648,0.4329013,0.4328923,0.4329347,0.4330062,0.4331048,0.4332242,0.4334231,0.4337565,0.4342004,0.4347771,0.4355169,0.4364406,0.437493,0.4386131,0.4398603,0.4412509,0.442747,0.4443708,0.446101,0.4479561,0.4499704,0.4521615,0.4545423,0.4570276,0.4596441,0.4624439,0.4654353,0.4685709,0.4717561,0.4750014,0.4782903,0.4816067,0.4849218,0.4882568,0.4916869,0.4952002,0.4987477,0.5023042,0.5057963,0.5092105,0.5125687,0.5157949,0.518912,0.5220243,0.5250254,0.5277754,0.5303578,0.5327322,0.5348632,0.5368249,0.5385446,0.5399729,0.5410882,0.5418448,0.5422965,0.5424598,0.5422902
408,92.5999985,10.21,89.7900009,54.0900002,22.7399998,17.0499992,81.4400024,251.4700012,35.6399994,44.6699982,3.3299999,12.6700001,13.1099997,0.9869753,0.9908645,0.9938689,0.9961448,0.9978224,0.9990996,1.0001123,1.0008967,1.0014952,1.0019737,1.0023135,1.002387,1.0021291,1.0016197,1.000976,1.0002176,0.99927,0.9980325,0.996485,0.9946769,0.9926124,0.9903026,0.9877436,0.9849054,0.9818479,0.9786586,0.9754648,0.9723814,0.969448,0.9666428,0.9639257,0.961302,0.9586964,0.9560455,0.9533075,0.95044,0.9474073,0.9441873,0.940671,0.9368203,0.9326292,0.9281507,0.9233844,0.9182727,0.9127103,0.9066592,0.9000553,0.8928312,0.8849235,0.8763145,0.866937,0.8567927,0.8458984,0.8343057,0.8220748,0.809285,0.796086,0.7826512,0.7692329,0.7561018,0.743553,0.7318872,0.7213841,0.7122556,0.7046145,0.6984529,0.6936358,0.6898965,0.6868771,0.6841767,0.6814193,0.6783037,0.6746668,0.6705009,0.6659411,0.6612143,0.6565859,0.6523086,0.6485879,0.6455566,0.6432753,0.6417375,0.6409007,0.6406969,0.641037,0.6418127,0.642925,0.6442755,0.6457731,0.6473481,0.6489821,0.6506752,0.6524304,0.6543068,0.6563495,0.6585836,0.6610706,0.6638578,0.6669611,0.6704003,0.6741797,0.6782415,0.6824945,0.6868098,0.691044,0.6950418,0.6986485,0.7017407,0.7042382,0.7061157,0.7074068,0.7081912,0.7086138,0.7088927,0.7092987,0.7101714,0.7118724,0.7147468,0.7190874,0.7250831,0.7327669,0.7420003,0.7524772,0.7637944,0.7755437,0.7874238,0.7993082,0.8112579,0.8234437,0.8360215,0.8490168,0.8622311,0.8752233,0.8873174,0.8976924,0.9054976,0.9099466,0.9103776,0.9062247,0.8970317,0.882467,0.8624068,0.8370371,0.80692,0.7729917,0.7364515,0.6985843,0.6605956,0.6235,0.5880527,0.5547545,0.5238867,0.4955617,0.4697798,0.4464586,0.4254662,0.4066384,0.3897972,0.3747702,0.3613729,0.3494301,0.3387786,0.3292677,0.3207661,0.3131522,0.3063218,0.3001886,0.2946811,0.2897348,0.2852973,0.2813234,0.2777633,0.2745701,0.2716956,0.2690871,0.26669,0.2644502,0.2623183,0.2602414,0.2581739,0.2560767,0.2539302,0.251733,0.2494919,0.2472329,0.2449936,0.2428094,0.2407096,0.2387131,0.2368328,0.2350705,0.2334216,0.2318767,0.2304206,0.2290335,0.2276982,0.2263992,0.2251265,0.223872,0.2226296,0.2213935,0.2201563,0.2189179,0.2176818,0.2164595,0.2152633,0.214098,0.2129651,0.2118648,0.2107915,0.2097374,0.2086939,0.2076545,0.2066131,0.2055709,0.2045315,0.2034945,0.2024608,0.2014232,0.2003895,0.1993624,0.1983399,0.1973227,0.1963147,0.1953167,0.1943287,0.1933529,0.1923854,0.1914294,0.1904906,0.1895669,0.1886545,0.1877468,0.1868543,0.1859775,0.1851254,0.1842957,0.1834751,0.1826641,0.1818705,0.1810957,0.1803423,0.1796054,0.1788845,0.1781802,0.1774917,0.1768222,0.1761692,0.1755314,0.174908,0.1742991,0.1737069,0.1731338,0.1725758,0.1720273,0.1714855,0.1709489,0.1704167,0.1698917,0.1693732,0.1688605,0.1683534,0.1678542,0.1673623,0.1668752,0.1663944,0.165921,0.1654557,0.164997,0.1645452,0.1641038,0.1636761,0.1632615,0.1628588,0.1624703,0.1620985,0.1617436,0.1614036,0.1610781,0.1607635,0.1604634,0.1601797,0.1599113,0.1596592,0.1594208,0.1591944,0.1589762,0.1587646,0.1585553,0.1583441,0.1581345,0.157922,0.1577062,0.1574858,0.1572602,0.1570299,0.1567974,0.1565589,0.1563184,0.156076,0.1558316,0.1555868,0.1553411,0.1550959,0.1548502,0.1546059,0.1543622,0.1541181,0.1538714,0.1536231,0.1533712,0.1531192,0.1528676,0.1526163,0.1523654,0.1521154,0.1518687,0.1516255,0.1513823,0.1511409,0.1509008,0.150665,0.1504321,0.150205,0.1499852,0.1497674,0.1495495,0.149332,0.1491171,0.1489027,0.1486861,0.148467,0.1482457,0.1480245,0.1478061,0.1475915,0.1473796,0.147169,0.1469638,0.1467637,0.1465648,0.146368,0.1461698,0.1459809,0.1457967,0.1456067,0.1453961,0.1451559,0.1448917,0.1446148,0.1436995,0.1435382,0.1433776,0.1432236,0.1430884,0.1429657,0.1428416,0.1427188,0.1426173,0.1425422,0.1424834,0.142437,0.1424041,0.1423866,0.1423969,0.1424438,0.1425212,0.1426272,0.1427599,0.142909,0.1430672,0.1432386,0.1434353,0.143661,0.1439064,0.1441709,0.1444616,0.1447813,0.1451263,0.1454931,0.1458809,0.1462812,0.1466762,0.1470529,0.147418,0.1477786,0.1481322,0.1484856,0.1488584,0.1492627,0.1496863,0.150107,0.1505094,0.150878,0.1511969,0.1514566,0.1516585,0.1518096,0.1519116,0.1519704,0.1519921,0.1519831,0.1519467,0.1518783,0.1517687,0.1516007,0.1513692,0.1510841,0.150752,0.1503787,0.1499698,0.1495322,0.1490767,0.1486223,0.1481854,0.1477705,0.1473783,0.1470051,0.1466456,0.1463047,0.1459854,0.1456815,0.1453932,0.1451227,0.1448675,0.1446254,0.1443971,0.1441882,0.144009,0.1438587,0.1437256,0.1436026,0.1434868,0.143376,0.1432722,0.1431732,0.1430684,0.1429522,0.1428218,0.1426778,0.1425175,0.1423444,0.1421688,0.1419979,0.1418332,0.1416704,0.1415127,0.1413678,0.141238,0.1411221,0.1410185,0.1409325,0.140865,0.1408141,0.1407832,0.1407719,0.1407789,0.1408053,0.140853,0.1409251,0.141022,0.1411465,0.1413053,0.1415019,0.1417376,0.142006,0.1423098,0.1426503,0.1430304,0.1434611,0.1439446,0.1444786,0.1450603,0.1456859,0.1463528,0.1470557,0.1477891,0.1485506,0.1493362,0.150133,0.1509211,0.1516828,0.1524128,0.1531058,0.1537507,0.1543433,0.1548871,0.1553965,0.1558984,0.1564225,0.1569934,0.157631,0.1583526,0.1591687,0.1600827,0.1610959,0.1622071,0.1634208,0.1647628,0.1662631,0.1679402,0.1698143,0.1719008,0.1741976,0.1766884,0.1793481,0.1821518,0.1850695,0.1880662,0.191109,0.19417,0.1972184,0.2002172,0.2031257,0.2059093,0.2085413,0.211007,0.2132987,0.2154102,0.2173431,0.2191033,0.2207029,0.2221511,0.2234569,0.2246389,0.2257184,0.226711,0.2276296,0.2284835,0.229269,0.2299814,0.2306269,0.2312121,0.2317334,0.232183,0.2325602,0.2328722,0.2331292,0.2333406,0.2335164,0.233666,0.2337933,0.2338975,0.2339717,0.2340091,0.234007,0.23396,0.2338692,0.2337354,0.2335573,0.2333391,0.2330804,0.2327777,0.2324351,0.2320606,0.2316569,0.2312269,0.2307809,0.2303327,0.2298873,0.2294483,0.2290258,0.2286267,0.2282542,0.2279158,0.2276231,0.2273751,0.2271603,0.2269774,0.226828,0.2267005,0.2265805,0.2264645,0.2263597,0.2262742,0.2262067,0.2261564,0.2261292,0.2261361,0.2261798,0.2262505,0.226343,0.2264576,0.2265781,0.2266841,0.2267771,0.2268587,0.2269155,0.2269386,0.2269206,0.2268501,0.2267207,0.226534,0.2262918,0.2259883,0.2256263,0.2252124,0.2247583,0.2242749,0.2237615,0.223218,0.2226565,0.2220872,0.2215156,0.220947,0.2203818,0.2198152,0.2192405,0.2186575,0.2180676,0.2174701,0.2168751,0.2162918,0.2157266,0.2151762,0.2146307,0.2140976,0.2135846,0.2130947,0.2126324,0.2122052,0.2118137,0.2114577,0.2111373,0.2108538,0.2106132,0.2104243,0.2102979,0.2102424,0.2102575,0.2103358,0.2104789,0.2106997,0.2110114,0.2114246,0.211947,0.2125869,0.2133495,0.214236,0.2152467,0.2163886,0.2176605,0.2190339,0.2204673,0.2219122,0.2233167,0.2246486,0.2259042,0.2270844,0.2281795,0.2291779,0.230073,0.2308578,0.2315383,0.2321491,0.2327329,0.2333142,0.2339084,0.2345224,0.2351561,0.2358187,0.2365107,0.2372013,0.2378185,0.2382656,0.238467,0.2384163,0.2381755,0.2378476,0.237537,0.2373026,0.2371519,0.2370727,0.2370389,0.2370328,0.2370549,0.2371012,0.2371645,0.2372316,0.2372781,0.2372676,0.2371584,0.2369166,0.236542,0.2360684,0.2355443,0.2350062,0.2344776,0.2339696,0.2334898,0.2330416,0.2326113,0.2321942,0.231793,0.2314018,0.2310139,0.2306264,0.2302302,0.2298168,0.229386,0.2289465,0.2285141,0.2280946,0.2276923,0.227313,0.2269575,0.2266145,0.2262741,0.2259343,0.2255896,0.2252356,0.2248735,0.2245003,0.2241043,0.2236806,0.2232296,0.2227536,0.2222593,0.2217529,0.22125,0.2207677,0.2203097,0.2198692,0.2194569,0.2190936,0.2187899,0.2185552,0.2183957,0.2183105,0.2183055,0.21839,0.218563,0.2188344,0.2192263,0.2197708,0.2205029,0.2214571,0.2226599,0.2241202,0.2258547,0.2279086,0.2303478,0.2332462,0.2366636,0.2406321,0.2451499,0.250178,0.2556762,0.2616302,0.2680038,0.2746968,0.2815579,0.2884066,0.2950754,0.301449,0.3074706,0.3130979,0.3182926,0.3230356,0.3273052,0.3310751,0.3343246,0.3370487,0.3392616,0.3409787,0.3422165,0.3429895,0.3433166,0.3432339,0.3427936,0.3420488,0.3410447,0.3398126,0.3383888,0.3368103,0.3351171,0.333359,0.3315742,0.3297816,0.3279951,0.3262274,0.3244968,0.3228115,0.3211694,0.3195665,0.3179943,0.3164375,0.3148876,0.3133419,0.3117956,0.3102574,0.3087345,0.3072398,0.3057878,0.3043872,0.3030654,0.3018311,0.3006858,0.2996505,0.2987488,0.2979966,0.2974034,0.2969928,0.2967805,0.2967628,0.2969352,0.2973122,0.2979042,0.2987095,0.2997368,0.3009966,0.3025043,0.3042595,0.3062514,0.3084713,0.3109118,0.3135574,0.3164048,0.3194339,0.3226143,0.3259283,0.3293387,0.3328071,0.3362835,0.3397217,0.3430647,0.3462346,0.3491853,0.3519039,0.3543797,0.3566187,0.3586544,0.3605148,0.3622255,0.3637984,0.3652484,0.3665908,0.3678437,0.3690241,0.3701264,0.3711539,0.3721149,0.3730176,0.3738687,0.3746824,0.3754727,0.3762277,0.3769348,0.3775919,0.3782149,0.378783,0.3792744,0.3796863,0.3800345,0.3803151,0.3805323,0.380682,0.3807359,0.3806916,0.380559,0.380348,0.3800523,0.3796952,0.3793024,0.378882,0.3784551,0.3780355,0.3776394,0.3772715,0.3769107,0.3765309,0.3760971,0.3755922,0.3750272,0.3744074,0.3737721,0.3731532,0.3725389,0.371929,0.3713462,0.370781,0.3702304,0.3696678,0.3690653,0.3684019,0.367637,0.3667808,0.3658544,0.3648587,0.363816,0.3627562,0.3616565,0.3605217,0.3593639,0.3581933,0.3570332,0.3558972,0.3547857,0.3537021,0.3526727,0.3516977,0.3507547,0.34984,0.3489662,0.3480996,0.3472278,0.3463753,0.3455617,0.344812,0.3441682,0.3436536,0.3432886,0.343097,0.3431159,0.3433826,0.3439479,0.3448321,0.3460356,0.3475817,0.3494962,0.3517426,0.3542976,0.3571919,0.3604001,0.3638511,0.3674727,0.3712189,0.375055,0.3789562,0.3829243,0.3869489,0.3909802,0.3949476,0.3988079,0.4025073,0.4059918,0.409177,0.411996,0.4143567,0.4162813,0.4178781,0.419173,0.4201739,0.4209426,0.4215606,0.4221061,0.4226302,0.4232296,0.4240021,0.4250095,0.4261821,0.4274285,0.4287753,0.4302257,0.4317328,0.4331169,0.4341049,0.4344183,0.4339783,0.4329622,0.431765,0.4307451,0.4300207,0.4296427,0.4295326,0.4295382,0.4296315,0.4297911,0.4299696,0.4301988,0.4305351,0.4309435,0.4313647,0.4318024,0.432197,0.4324084,0.4322444,0.4316289,0.4306017,0.4293187,0.4280723,0.4270206,0.426204,0.4255769,0.4250231,0.4244738,0.42392,0.4234172,0.4229859,0.4226358,0.4223854,0.4221956,0.422056,0.4219851,0.4219881,0.422047,0.4221093,0.4221617,0.4222158,0.4223491,0.4226377,0.4230741,0.4236625,0.4243941,0.4252539,0.4261814,0.4271573,0.4282864,0.4295968,0.4310324,0.4325903,0.4342427,0.436027,0.4379867,0.4401076,0.4423881,0.4447776,0.447324,0.450057,0.452961,0.4559866,0.4590422,0.4621263,0.4652281,0.4683748,0.4715672,0.4748149,0.4781533,0.4815177,0.4848671,0.4882655,0.4917012,0.4951362,0.4985086,0.5016165,0.504426,0.5071466,0.5098209,0.5123638,0.5148346,0.5171478,0.5192179,0.5210807,0.5226764,0.5239933,0.5250222,0.5257363,0.5261972,0.5264163,0.5263778
409,92.9400024,12.6199999,87.3799973,51.0999985,32.7000008,16.3400002,77.5800018,234.4799957,33.0900002,44.5299988,3.3699999,12.6700001,14.1099997,0.9593885,0.9631726,0.9660403,0.9680641,0.9693002,0.9698962,0.9700624,0.9699915,0.9697781,0.9694491,0.9690302,0.9684741,0.9676436,0.9664701,0.9650465,0.9634674,0.9617339,0.9598209,0.9577429,0.9554815,0.9529325,0.9500514,0.9468368,0.9432781,0.9394711,0.935574,0.9317805,0.9282144,0.9248885,0.9217725,0.9188631,0.9162306,0.9138291,0.9115446,0.9092541,0.9068773,0.9043823,0.9017441,0.8988292,0.8955737,0.8919488,0.8879876,0.8836755,0.8789335,0.8736247,0.8676925,0.8610702,0.8536747,0.8454108,0.836237,0.8260808,0.8149515,0.8028852,0.7899684,0.7763134,0.7620583,0.7474043,0.7325773,0.7178926,0.7036807,0.6902671,0.6779509,0.6669888,0.6575547,0.6497135,0.6434069,0.6384544,0.6345541,0.6313292,0.6283871,0.6253948,0.6221181,0.6184599,0.6144583,0.6102631,0.6060887,0.6021712,0.5987242,0.5959135,0.5938451,0.592573,0.5920998,0.5923969,0.5934055,0.5950379,0.5971771,0.5997057,0.6025017,0.6054484,0.6084456,0.6114417,0.6144056,0.6173145,0.6202075,0.6231124,0.6260392,0.6290393,0.6321573,0.6354149,0.6388463,0.6424795,0.6462905,0.6502353,0.6542423,0.6582242,0.6620709,0.665662,0.6688966,0.6716999,0.6740258,0.6758652,0.6772503,0.6782888,0.6791705,0.6801453,0.6815429,0.6837296,0.6870655,0.6918591,0.6983033,0.7064162,0.716023,0.7267656,0.7381864,0.7498354,0.7613972,0.7727668,0.7840596,0.7955198,0.8073807,0.8197407,0.8324618,0.8451515,0.8571778,0.8677631,0.8760961,0.8814117,0.8830298,0.880307,0.8726441,0.8595136,0.8405775,0.8158402,0.7857656,0.7513011,0.7137545,0.6745741,0.6351323,0.5965765,0.5597451,0.5251755,0.4931515,0.463769,0.4370083,0.4127733,0.3909294,0.3713193,0.3537759,0.3381338,0.3242072,0.3118095,0.30076,0.2908898,0.2820503,0.2741071,0.2669508,0.2604974,0.2546819,0.2494489,0.244755,0.2405622,0.2368247,0.2334961,0.2305258,0.2278569,0.2254281,0.2231777,0.2210498,0.2189856,0.2169341,0.2148523,0.2127192,0.2105347,0.2083078,0.2060667,0.2038526,0.2017062,0.1996608,0.1977368,0.1959468,0.1942921,0.1927672,0.1913617,0.1900579,0.1888326,0.1876659,0.1865406,0.1854462,0.1843748,0.1833193,0.1822722,0.1812253,0.1801788,0.1791368,0.1781101,0.1771096,0.1761401,0.175204,0.1743014,0.1734259,0.1725695,0.1717242,0.1708841,0.1700441,0.1692058,0.1683723,0.1675439,0.1667231,0.1659038,0.1650926,0.1642918,0.1635002,0.162719,0.1619518,0.161199,0.1604605,0.1597383,0.1590281,0.1583326,0.1576566,0.1569972,0.1563509,0.1557115,0.1550892,0.1544833,0.1539021,0.1533419,0.1527884,0.1522427,0.1517134,0.1512007,0.1507057,0.1502238,0.1497543,0.1492971,0.1488504,0.148417,0.1479939,0.1475797,0.1471731,0.1467739,0.1463837,0.146006,0.145637,0.1452715,0.1449072,0.1445434,0.1441796,0.1438184,0.143459,0.1431013,0.1427463,0.1423967,0.1420517,0.1417086,0.1413687,0.1410338,0.1407053,0.1403813,0.1400615,0.1397489,0.1394471,0.139156,0.1388748,0.138606,0.1383515,0.138112,0.1378856,0.1376726,0.137469,0.1372781,0.1371016,0.1369382,0.1367893,0.1366523,0.1365255,0.1364052,0.1362897,0.1361747,0.1360563,0.1359375,0.1358135,0.1356835,0.1355469,0.1354038,0.1352549,0.1351023,0.1349413,0.1347766,0.1346094,0.1344395,0.1342682,0.1340947,0.1339202,0.1337435,0.1335669,0.1333895,0.1332106,0.1330277,0.1328418,0.1326508,0.1324577,0.1322635,0.1320689,0.1318744,0.1316797,0.1314867,0.1312953,0.131102,0.1309094,0.1307173,0.1305296,0.1303446,0.1301645,0.1299902,0.1298162,0.1296408,0.1294647,0.1292904,0.129117,0.1289417,0.1287637,0.128583,0.1284015,0.1282221,0.1280454,0.1278705,0.1276956,0.1275241,0.1273554,0.1271848,0.1270127,0.1268349,0.1266636,0.1264977,0.1263303,0.1261493,0.1259461,0.1257246,0.1254926,0.1248215,0.1247004,0.124582,0.1244713,0.1243757,0.124287,0.1241925,0.1240948,0.1240154,0.1239621,0.1239259,0.1239043,0.1239016,0.1239222,0.1239747,0.1240591,0.1241657,0.1242971,0.124456,0.1246349,0.1248314,0.1250446,0.1252765,0.1255323,0.1258096,0.1261088,0.1264347,0.1267877,0.1271634,0.1275593,0.1279751,0.1284032,0.1288253,0.1292288,0.1296217,0.1300117,0.1303947,0.1307746,0.1311672,0.1315828,0.1320124,0.1324373,0.1328399,0.1332027,0.1335122,0.1337624,0.133956,0.1340993,0.1341953,0.1342515,0.1342734,0.1342644,0.1342249,0.1341513,0.1340416,0.1338837,0.1336706,0.1334082,0.133102,0.1327569,0.1323775,0.1319724,0.1315535,0.1311364,0.1307316,0.1303415,0.1299689,0.1296148,0.1292762,0.1289568,0.1286546,0.1283605,0.1280789,0.1278184,0.1275755,0.1273462,0.1271312,0.1269337,0.1267629,0.1266216,0.1265004,0.1263931,0.1262969,0.1262053,0.1261153,0.1260261,0.1259321,0.12583,0.1257159,0.1255884,0.1254416,0.1252756,0.125102,0.1249331,0.1247742,0.1246214,0.1244755,0.1243398,0.1242169,0.12411,0.1240159,0.1239338,0.1238671,0.1238221,0.1238037,0.1238079,0.1238325,0.1238782,0.123943,0.1240286,0.1241381,0.1242759,0.1244479,0.1246596,0.1249152,0.1252092,0.1255401,0.125905,0.1263056,0.126754,0.1272538,0.1278018,0.1283948,0.129032,0.1297139,0.1304356,0.1311868,0.1319616,0.1327567,0.1335612,0.1343598,0.1351377,0.1358874,0.1365993,0.1372604,0.137865,0.1384152,0.1389276,0.1394299,0.1399504,0.1405167,0.141152,0.1418712,0.1426819,0.1435914,0.1446069,0.1457266,0.1469517,0.1483068,0.1498206,0.1515052,0.1533708,0.1554233,0.1576595,0.1600712,0.1626409,0.1653424,0.1681427,0.171009,0.1739141,0.1768335,0.179736,0.1825823,0.1853332,0.1879579,0.1904337,0.1927485,0.1948943,0.196867,0.1986726,0.2003186,0.2018172,0.2031787,0.2044122,0.2055347,0.2065649,0.2075191,0.2084097,0.209245,0.2100237,0.2107396,0.2113912,0.2119816,0.2125117,0.2129785,0.2133803,0.2137202,0.2140069,0.2142492,0.2144545,0.2146305,0.2147814,0.2149093,0.2150099,0.2150769,0.2151072,0.215096,0.2150451,0.2149559,0.2148265,0.2146561,0.2144412,0.2141846,0.2138964,0.2135814,0.2132369,0.2128634,0.2124681,0.2120653,0.211663,0.2112639,0.2108757,0.210509,0.2101703,0.2098635,0.209598,0.209375,0.2091836,0.2090208,0.2088862,0.2087698,0.2086618,0.2085599,0.2084685,0.2083951,0.2083434,0.2083146,0.2083086,0.2083314,0.2083901,0.2084801,0.2085954,0.2087335,0.2088772,0.2090084,0.2091293,0.2092391,0.209327,0.2093879,0.2094149,0.209394,0.2093147,0.2091779,0.2089884,0.2087422,0.2084426,0.2080954,0.2077112,0.207301,0.2068631,0.2063931,0.2058984,0.2053907,0.2048821,0.2043825,0.2038909,0.203397,0.2028924,0.202381,0.2018661,0.2013451,0.2008246,0.2003099,0.1998091,0.1993259,0.1988524,0.1983918,0.1979472,0.1975193,0.1971135,0.1967407,0.1964051,0.1961045,0.1958362,0.1956021,0.1954078,0.1952611,0.1951736,0.1951552,0.195207,0.1953208,0.1954944,0.1957378,0.1960673,0.1964993,0.1970433,0.1977029,0.1984765,0.1993602,0.2003514,0.2014567,0.2026794,0.2039959,0.2053638,0.2067295,0.2080408,0.2092705,0.21042,0.211493,0.2124816,0.2133777,0.2141817,0.2148931,0.2155195,0.2160909,0.2166461,0.2172066,0.2177845,0.2183817,0.2189922,0.2196196,0.2202581,0.2208791,0.2214291,0.2218383,0.2220505,0.2220602,0.2219165,0.2217043,0.2215046,0.2213604,0.22128,0.2212567,0.2212633,0.2212789,0.221307,0.2213472,0.221393,0.2214341,0.221452,0.2214185,0.2213028,0.2210796,0.2207475,0.2203305,0.2198701,0.2193991,0.2189354,0.2184886,0.2180705,0.2176856,0.2173194,0.2169661,0.2166243,0.2162826,0.215935,0.2155851,0.2152296,0.2148635,0.2144851,0.2140986,0.2137176,0.2133503,0.2130044,0.2126851,0.2123902,0.2121078,0.2118265,0.2115431,0.2112515,0.2109481,0.2106374,0.2103181,0.209975,0.2095996,0.209193,0.2087651,0.2083278,0.2078846,0.2074449,0.2070215,0.2066168,0.2062266,0.2058681,0.2055642,0.2053195,0.2051376,0.2050233,0.2049779,0.2050105,0.20513,0.2053375,0.2056459,0.2060728,0.2066457,0.2074015,0.2083711,0.2095716,0.2110122,0.2127193,0.2147434,0.2171452,0.2199899,0.2233361,0.2272173,0.2316294,0.2365243,0.2418495,0.2475798,0.2536792,0.2600617,0.266587,0.2730729,0.2793538,0.2853321,0.2909729,0.2962421,0.3010949,0.3055054,0.3094568,0.3129348,0.3159258,0.3184254,0.3204434,0.3219922,0.3230942,0.3237726,0.3240472,0.3239502,0.323528,0.3228303,0.3218998,0.3207664,0.3194654,0.3180321,0.3164964,0.3148929,0.3132567,0.3116203,0.3100093,0.3084279,0.3068744,0.3053491,0.3038593,0.3024149,0.3010106,0.2996204,0.2982263,0.2968275,0.295425,0.2940271,0.2926363,0.291261,0.2899137,0.2886045,0.2873609,0.2861927,0.2851068,0.2841221,0.2832523,0.2825061,0.2818944,0.2814443,0.2811753,0.2810886,0.2811788,0.2814553,0.2819232,0.2825803,0.2834407,0.2845203,0.2858334,0.2873759,0.289139,0.291119,0.2933124,0.2957068,0.2982972,0.3010587,0.3039616,0.3069979,0.3101369,0.3133386,0.3165514,0.3197301,0.3228209,0.325747,0.3284675,0.330981,0.3332777,0.3353516,0.337232,0.338952,0.3405381,0.3420075,0.3433782,0.3446565,0.3458533,0.3469826,0.3480355,0.349015,0.3499354,0.3508117,0.3516459,0.3524415,0.353213,0.3539562,0.3546579,0.355312,0.3559334,0.3565015,0.3570028,0.3574475,0.3578471,0.3581817,0.3584506,0.3586552,0.3587721,0.3587955,0.3587267,0.3585752,0.3583431,0.3580628,0.3577623,0.3574418,0.3571077,0.3567713,0.3564576,0.356174,0.3558969,0.3556022,0.3552619,0.3548653,0.3544176,0.3539064,0.3533594,0.3528221,0.3523007,0.3517878,0.3512876,0.3507949,0.3503267,0.3498587,0.3493519,0.3487839,0.3481171,0.3473628,0.3465474,0.3456699,0.3447387,0.3437777,0.3427691,0.3417221,0.3406517,0.3395672,0.338482,0.3374069,0.3363509,0.3353213,0.3343432,0.3334215,0.3325341,0.3316688,0.3308324,0.3299941,0.329159,0.3283691,0.3276317,0.3269431,0.3263398,0.3258583,0.3255255,0.3253585,0.3253792,0.3256157,0.3261276,0.3269471,0.3280666,0.3294838,0.3312201,0.3332606,0.3355873,0.3382162,0.3411146,0.3442204,0.347485,0.3508803,0.3543746,0.3579448,0.3615937,0.3653084,0.3690269,0.3726571,0.3761598,0.3795186,0.3827007,0.3856146,0.3881985,0.3903745,0.392161,0.3936566,0.3948964,0.3959051,0.3967471,0.3974829,0.3981563,0.3987885,0.3994686,0.4002946,0.4013179,0.4024563,0.4036104,0.4048024,0.4060455,0.4073088,0.4084343,0.4092045,0.4094195,0.4090433,0.408231,0.4073087,0.4065481,0.4059962,0.4057001,0.4056448,0.405715,0.4058541,0.4060131,0.4061537,0.4063192,0.4065664,0.4068716,0.407185,0.4074909,0.407724,0.407797,0.4075881,0.4070382,0.4061483,0.4050338,0.4039585,0.4030438,0.4023135,0.401747,0.4012584,0.4007663,0.4002246,0.3996937,0.3992282,0.3988465,0.3985803,0.3984238,0.3983619,0.3983617,0.398377,0.3983891,0.3984126,0.3984968,0.3986263,0.3987989,0.3990679,0.3994624,0.4000033,0.4006696,0.401464,0.4023524,0.4032993,0.4043833,0.4056305,0.4070047,0.4085254,0.4101475,0.4118718,0.413752,0.4157962,0.4179746,0.4202066,0.4225477,0.4250531,0.4277333,0.4305548,0.4334413,0.4363818,0.4393308,0.4423067,0.4453247,0.4483908,0.4515165,0.4546422,0.4577675,0.4609464,0.4641228,0.4672659,0.4703655,0.4732741,0.4759772,0.4786373,0.4812144,0.4835898,0.4858546,0.4879784,0.4899327,0.4917742,0.4933953,0.4946926,0.4956096,0.4961535,0.4964646,0.496591,0.4964794
410,92.3799973,12,88,51.9900017,23.9699993,16.5900002,85.5599976,237.4199982,33.6500015,39.3899994,3.6400001,12.7600002,14.1499996,0.9855669,0.9898359,0.9932608,0.9959379,0.9979742,0.9995187,1.0007024,1.0016229,1.0023431,1.0028883,1.0032406,1.0033172,1.0030425,1.0024418,1.0016159,1.0005908,0.9993005,0.9976901,0.995773,0.9935432,0.9909565,0.988074,0.9849414,0.9814936,0.9777489,0.9738131,0.9698432,0.9659566,0.9621973,0.9585614,0.9550159,0.9515648,0.9481381,0.9446769,0.9411353,0.9374649,0.9336213,0.9295527,0.9251114,0.920253,0.9149981,0.9094331,0.9035958,0.8974638,0.8909428,0.8840017,0.8766095,0.8687435,0.8603733,0.8514969,0.8420478,0.8320216,0.8214238,0.8102866,0.7986511,0.786584,0.774223,0.7617275,0.7493352,0.7373011,0.7258995,0.715404,0.7060646,0.698069,0.6915132,0.6863697,0.6824766,0.6795388,0.6771798,0.6749961,0.6726222,0.6697747,0.6663103,0.6622418,0.6577238,0.6530026,0.6483569,0.6440416,0.6402558,0.6371251,0.6347057,0.6329899,0.6319344,0.6314712,0.6315128,0.6319535,0.6326988,0.6336599,0.6347574,0.6359293,0.6371611,0.6384553,0.639819,0.6413208,0.6430176,0.6449414,0.6471581,0.6497239,0.6526695,0.6560259,0.6597963,0.6639131,0.6682741,0.6727365,0.6771348,0.6812868,0.6850148,0.688183,0.6907091,0.6925705,0.6938069,0.6945061,0.694819,0.6949638,0.6952028,0.6958585,0.6972711,0.6997699,0.7036459,0.7091053,0.7162198,0.7249111,0.7349481,0.7460035,0.757732,0.7698711,0.7822936,0.7950173,0.808136,0.8217109,0.8356709,0.8497321,0.863385,0.8759022,0.8864311,0.8941094,0.8981606,0.8979543,0.8929816,0.8828738,0.8674139,0.8466064,0.8207557,0.7905102,0.7568443,0.7209489,0.6840687,0.647351,0.6117442,0.5779362,0.5463611,0.5172358,0.490612,0.466437,0.4445857,0.4248957,0.4071873,0.3912809,0.3770148,0.3642253,0.3527636,0.342496,0.3332994,0.3250645,0.3176847,0.3110655,0.3051254,0.2997939,0.2950058,0.2907079,0.2868537,0.2833918,0.280274,0.2774516,0.2748728,0.2724853,0.2702391,0.2680915,0.2659981,0.2639206,0.261825,0.2596947,0.2575307,0.2553404,0.2531471,0.2509828,0.2488773,0.2468542,0.2449279,0.2431076,0.2413943,0.2397843,0.2382696,0.2368346,0.2354589,0.2341267,0.232825,0.2315464,0.2302842,0.2290317,0.2277817,0.2265262,0.2252662,0.2240063,0.2227584,0.2215344,0.2203399,0.2191772,0.2180455,0.2169379,0.2158465,0.214763,0.2136817,0.2125972,0.2115107,0.2104243,0.2093361,0.2082473,0.207152,0.2060588,0.2049705,0.2038854,0.2028037,0.2017286,0.2006608,0.1996012,0.1985532,0.1975129,0.196483,0.1954684,0.1944675,0.1934777,0.1924928,0.1915231,0.1905692,0.1896409,0.1887361,0.1878409,0.1869558,0.1860889,0.1852413,0.1844155,0.1836073,0.1828157,0.1820408,0.1812815,0.1805412,0.1798182,0.1791116,0.1784201,0.1777439,0.177085,0.1764465,0.1758246,0.1752136,0.174611,0.174016,0.1734279,0.1728495,0.1722796,0.1717172,0.1711625,0.1706179,0.1700827,0.1695545,0.1690346,0.168524,0.168023,0.1675294,0.1670435,0.1665687,0.1661083,0.1656618,0.1652279,0.1648086,0.1644061,0.1640209,0.1636508,0.1632957,0.1629518,0.1626223,0.162309,0.1620106,0.1617287,0.1614608,0.1612052,0.1609582,0.1607183,0.1604817,0.1602443,0.1600095,0.1597726,0.1595327,0.1592892,0.1590423,0.1587926,0.1585419,0.1582855,0.1580276,0.1577686,0.1575085,0.1572488,0.1569888,0.1567297,0.1564703,0.156213,0.155957,0.1557011,0.1554427,0.155183,0.1549202,0.1546579,0.1543968,0.1541367,0.153878,0.1536212,0.1533682,0.1531186,0.1528693,0.1526227,0.1523789,0.1521404,0.1519041,0.1516722,0.1514467,0.1512235,0.1510015,0.1507809,0.1505634,0.150347,0.1501296,0.1499108,0.1496902,0.1494697,0.1492522,0.149039,0.1488288,0.148619,0.148413,0.1482113,0.1480103,0.1478104,0.1476065,0.1474097,0.1472183,0.1470244,0.1468154,0.146582,0.1463266,0.1460561,0.1451932,0.1450318,0.144871,0.1447187,0.1445888,0.1444729,0.1443507,0.1442269,0.1441251,0.1440439,0.1439738,0.143917,0.1438745,0.1438491,0.143854,0.1438953,0.1439644,0.1440539,0.1441608,0.1442817,0.1444146,0.1445635,0.1447354,0.14493,0.1451439,0.1453787,0.1456368,0.1459224,0.1462331,0.1465648,0.1469176,0.1472797,0.147632,0.1479651,0.1482875,0.148609,0.1489239,0.149232,0.1495568,0.1499161,0.1502966,0.1506732,0.1510264,0.1513446,0.1516195,0.1518394,0.1520044,0.1521239,0.1521993,0.1522401,0.1522548,0.1522426,0.1521999,0.1521205,0.1520006,0.1518307,0.1516058,0.1513335,0.1510199,0.1506684,0.1502845,0.149878,0.1494583,0.1490403,0.1486368,0.148254,0.1478928,0.147547,0.1472128,0.146896,0.1465952,0.1463037,0.1460264,0.1457687,0.1455272,0.145297,0.1450789,0.1448803,0.1447085,0.1445627,0.1444334,0.1443149,0.1442047,0.144097,0.1439913,0.1438891,0.1437829,0.1436673,0.1435393,0.1433986,0.1432437,0.1430785,0.1429095,0.1427438,0.1425849,0.1424298,0.1422819,0.1421437,0.142015,0.1418991,0.1417941,0.1417028,0.1416267,0.141568,0.1415338,0.1415232,0.1415328,0.1415613,0.1416033,0.1416591,0.1417358,0.1418422,0.1419849,0.1421657,0.1423838,0.1426319,0.1429104,0.1432215,0.1435704,0.1439655,0.1444074,0.1448939,0.1454227,0.145994,0.1466079,0.1472595,0.1479421,0.1486478,0.1493695,0.1500976,0.1508182,0.1515181,0.15219,0.1528259,0.1534184,0.1539646,0.154466,0.1549371,0.1554027,0.1558874,0.1564137,0.1570003,0.1576658,0.1584219,0.1592723,0.1602158,0.161248,0.1623765,0.1636297,0.1650336,0.166603,0.1683563,0.1703074,0.1724514,0.1747722,0.1772529,0.1798731,0.1826016,0.1854058,0.188259,0.191139,0.1940144,0.196841,0.1995789,0.2022011,0.2046838,0.2070109,0.2091717,0.2111623,0.212988,0.2146507,0.2161602,0.2175283,0.218764,0.2198837,0.2209036,0.2218372,0.2226983,0.2234969,0.2242334,0.224903,0.2255065,0.2260503,0.2265335,0.2269509,0.2273013,0.2275857,0.2278139,0.2279989,0.2281507,0.2282802,0.2283906,0.2284774,0.2285319,0.2285461,0.228521,0.2284607,0.2283704,0.2282471,0.2280776,0.2278569,0.2275899,0.2272858,0.2269554,0.2266016,0.2262211,0.2258181,0.2253995,0.2249773,0.2245595,0.2241485,0.2237554,0.2233885,0.2230462,0.2227327,0.2224589,0.2222272,0.2220282,0.2218589,0.2217251,0.2216147,0.2215084,0.2214027,0.2213068,0.2212286,0.2211674,0.2211212,0.2210935,0.2210929,0.2211296,0.2212027,0.2213,0.2214126,0.2215257,0.2216266,0.2217206,0.2218056,0.2218678,0.2218983,0.2218869,0.2218255,0.2217102,0.2215421,0.2213229,0.2210467,0.2207222,0.2203542,0.2199431,0.2194992,0.2190278,0.2185302,0.2180156,0.2174918,0.2169681,0.2164518,0.2159391,0.2154205,0.2148891,0.2143535,0.2138181,0.2132764,0.212736,0.2122013,0.211676,0.2111655,0.210667,0.2101885,0.2097301,0.2092876,0.208868,0.2084842,0.2081378,0.2078222,0.2075347,0.2072813,0.2070679,0.206902,0.206798,0.206764,0.2067976,0.2068885,0.2070354,0.2072514,0.2075537,0.2079589,0.2084739,0.2090985,0.2098319,0.2106771,0.2116404,0.2127269,0.2139313,0.2152269,0.2165734,0.2179224,0.219225,0.2204509,0.2216008,0.2226819,0.2236873,0.2246029,0.2254258,0.2261558,0.2267956,0.2273738,0.2279326,0.2284943,0.2290724,0.2296727,0.2302912,0.2309287,0.2315806,0.2322208,0.2327855,0.233189,0.2333664,0.2333122,0.2330857,0.2327871,0.2325124,0.2323107,0.2321868,0.2321306,0.2321149,0.232119,0.2321436,0.2321842,0.2322338,0.2322806,0.2323036,0.232273,0.2321536,0.231913,0.2315468,0.2310842,0.230574,0.2300548,0.2295489,0.2290635,0.2286063,0.2281849,0.2277891,0.2274144,0.2270545,0.2266936,0.2263263,0.2259606,0.2255944,0.2252153,0.2248159,0.224403,0.2239957,0.2236061,0.2232405,0.2229016,0.2225855,0.2222764,0.2219623,0.2216442,0.2213223,0.2209933,0.2206578,0.2203125,0.2199422,0.2195406,0.2191075,0.218648,0.2181754,0.2176995,0.2172315,0.2167798,0.2163438,0.2159258,0.2155446,0.2152163,0.2149396,0.2147206,0.2145721,0.2144986,0.2145046,0.2145945,0.2147689,0.21504,0.2154264,0.2159571,0.2166633,0.2175754,0.2187181,0.2201024,0.2217522,0.2237127,0.2260417,0.2288072,0.2320715,0.2358698,0.2401956,0.2450065,0.2502638,0.2559506,0.2620252,0.2683872,0.2748963,0.2813875,0.2877058,0.2937445,0.2994556,0.3048015,0.309734,0.3142264,0.3182616,0.3218205,0.324886,0.3274495,0.329522,0.3311207,0.3322645,0.3329687,0.3332554,0.3331652,0.3327412,0.3320232,0.3310507,0.3298607,0.3284989,0.3270051,0.3254128,0.3237565,0.3220613,0.3203489,0.3186479,0.3169754,0.3153358,0.3137311,0.3121665,0.3106437,0.3091501,0.3076641,0.3061809,0.3047051,0.3032328,0.3017682,0.3003133,0.2988815,0.2974908,0.2961529,0.2948931,0.2937236,0.2926504,0.2916821,0.2908293,0.2901079,0.2895363,0.2891423,0.2889432,0.2889383,0.2891163,0.289483,0.29005,0.2908243,0.2918173,0.2930321,0.2944752,0.2961445,0.2980365,0.3001481,0.3024714,0.3049922,0.3077078,0.3105957,0.3136243,0.3167822,0.3200357,0.3233437,0.3266527,0.3299147,0.3330823,0.336091,0.3388975,0.3414827,0.3438312,0.3459489,0.3478706,0.3496261,0.3512425,0.3527365,0.3541198,0.3553965,0.3565824,0.3577003,0.3587492,0.3597325,0.3606567,0.3615288,0.362354,0.3631401,0.3639002,0.3646315,0.3653256,0.3659745,0.3665849,0.3671338,0.3676073,0.3680124,0.3683669,0.3686634,0.3689004,0.3690624,0.369118,0.369076,0.3689594,0.3687802,0.3685212,0.3681983,0.367843,0.3674679,0.3670846,0.3666996,0.3663299,0.365986,0.3656461,0.3652834,0.3648791,0.3644255,0.3639209,0.3633536,0.3627486,0.362141,0.3615494,0.3609878,0.3604545,0.3599208,0.3593943,0.3588604,0.3582873,0.357655,0.3569321,0.3561329,0.3552771,0.3543588,0.3533856,0.3523813,0.3513376,0.3502722,0.3491949,0.348104,0.3470159,0.3459537,0.3449243,0.343922,0.3429657,0.3420592,0.3411775,0.3403064,0.3394582,0.338621,0.337804,0.3370223,0.3362638,0.3355383,0.3349017,0.3343951,0.3340441,0.3338626,0.3338692,0.3340918,0.3345972,0.335432,0.3366005,0.3381084,0.3399709,0.3421548,0.3446311,0.3474226,0.3505046,0.353806,0.3572635,0.3608467,0.3645122,0.3682146,0.3719577,0.3757483,0.3795457,0.3832741,0.3868882,0.3903362,0.393556,0.3964595,0.399015,0.4011744,0.4029551,0.4044264,0.4056087,0.4065554,0.4073538,0.4080484,0.4086706,0.4092608,0.4099306,0.4107781,0.4118353,0.4130173,0.4142481,0.4155592,0.4169317,0.4182994,0.4195006,0.4203163,0.4205178,0.4200484,0.4190811,0.4179676,0.4170126,0.4163123,0.4159226,0.4157775,0.4157395,0.415803,0.4159631,0.4161499,0.416364,0.4166768,0.41708,0.4174938,0.4178793,0.4181767,0.4182939,0.418083,0.4174762,0.4165029,0.4153077,0.4141573,0.4131745,0.4123859,0.411751,0.4111805,0.4106428,0.410126,0.4096614,0.4092619,0.4089232,0.4086589,0.4084615,0.408351,0.408332,0.4083635,0.4084128,0.4084727,0.4085745,0.4087142,0.408926,0.4092727,0.4097414,0.4103245,0.4110293,0.411873,0.4127955,0.4137549,0.4148512,0.4161319,0.4175514,0.4190867,0.4206848,0.42239,0.424288,0.4263908,0.4286582,0.4309801,0.4334036,0.4360024,0.4387785,0.4416818,0.4446485,0.4476887,0.45076,0.4538679,0.4570015,0.4601564,0.4633837,0.4666434,0.469882,0.4731376,0.4764171,0.4797192,0.4829564,0.4858967,0.4885629,0.4912371,0.4939461,0.496518,0.4989378,0.5011479,0.5031494,0.5049998,0.5065971,0.507892,0.5088617,0.5094794,0.5098566,0.5100369,0.50994
411,92.5999985,12.3100004,87.6900024,47.1699982,25.7700005,19.1200008,83.1299973,237.1900024,34.8600006,42.9000015,3.52,13.1599998,14.6800003,1.0040959,1.0087173,1.012596,1.0157222,1.018165,1.0201352,1.0218602,1.0234406,1.0248516,1.0260843,1.027166,1.028034,1.0285461,1.0286268,1.028383,1.0279703,1.0273852,1.0264989,1.0252842,1.0238277,1.0222123,1.020547,1.0188519,1.0170248,1.0150431,1.0129317,1.0107265,1.0084084,1.0058979,1.003131,1.0000814,0.9967615,0.9931039,0.9890794,0.9846877,0.9799286,0.9748194,0.9693885,0.9635774,0.9574195,0.9510057,0.9444967,0.9379866,0.9314957,0.9250129,0.9186185,0.9123521,0.9062085,0.9001459,0.8941361,0.8880789,0.881912,0.8755396,0.8688568,0.861746,0.854106,0.8459178,0.8372149,0.8281513,0.8189412,0.8098558,0.8012015,0.7932993,0.7864314,0.7807907,0.7764372,0.7732751,0.7710409,0.7693406,0.767698,0.7656379,0.762767,0.758863,0.7539063,0.7480645,0.741632,0.7349595,0.7283832,0.7221647,0.7164541,0.7112938,0.7066364,0.7023875,0.6984342,0.6946695,0.6910076,0.6874118,0.6838806,0.6804408,0.6771468,0.6741008,0.6714185,0.6692124,0.6676413,0.6668403,0.6669133,0.6679859,0.6701441,0.6734046,0.6777364,0.6830339,0.6890692,0.6955357,0.702062,0.7082577,0.7137447,0.7182032,0.7214251,0.7233316,0.723976,0.7235286,0.72224,0.7204286,0.7184541,0.7166711,0.7154385,0.7150876,0.7159112,0.7181634,0.7220448,0.7276848,0.7351453,0.7444125,0.755416,0.768039,0.782145,0.7975867,0.8142042,0.8317779,0.8499722,0.8683037,0.8861257,0.9026576,0.9170002,0.9282089,0.9353971,0.9378389,0.9350637,0.9268804,0.9134197,0.8951029,0.8725883,0.8466861,0.8182636,0.788173,0.7571828,0.725932,0.6949207,0.6645277,0.635021,0.6065938,0.5793924,0.5535381,0.529142,0.5062907,0.4850431,0.4654185,0.4473953,0.4309227,0.4159068,0.4022364,0.3897924,0.3784544,0.3681118,0.3586602,0.3500126,0.3421006,0.3348716,0.3282785,0.3222811,0.3168408,0.3119102,0.3074417,0.3033828,0.2996744,0.2962523,0.2930524,0.290017,0.2870871,0.2842123,0.2813494,0.2784745,0.2755822,0.2726747,0.2697731,0.266911,0.2641213,0.2614303,0.2588552,0.2564073,0.2540879,0.2518927,0.2498135,0.2478359,0.2459398,0.2441074,0.2423228,0.2405769,0.2388628,0.2371744,0.235505,0.2338463,0.2321979,0.2305633,0.2289536,0.2273808,0.2258507,0.2243666,0.2229285,0.2215288,0.2201578,0.2188071,0.2174703,0.2161406,0.214818,0.2135042,0.2121974,0.2108977,0.2095972,0.2083025,0.2070156,0.2057346,0.2044598,0.2031949,0.2019403,0.2006959,0.1994638,0.1982396,0.197027,0.195832,0.1946525,0.1934842,0.1923204,0.1911724,0.1900417,0.1889385,0.1878599,0.1867917,0.1857346,0.1846977,0.1836836,0.182695,0.1817275,0.1807803,0.1798539,0.1789484,0.1780678,0.17721,0.1763737,0.1755579,0.1747624,0.1739891,0.1732408,0.1725133,0.1718011,0.171101,0.170411,0.169729,0.1690569,0.1683933,0.167738,0.1670917,0.1664568,0.1658328,0.1652168,0.1646097,0.164013,0.1634275,0.1628522,0.1622877,0.1617372,0.1612045,0.1606889,0.160189,0.1597074,0.159246,0.1588055,0.158384,0.157981,0.1575925,0.1572219,0.1568713,0.1565398,0.1562286,0.155935,0.1556568,0.15539,0.1551325,0.1548798,0.1546273,0.1543781,0.1541272,0.1538737,0.1536165,0.1533551,0.15309,0.1528228,0.1525494,0.152274,0.1519975,0.1517198,0.1514424,0.1511645,0.1508877,0.1506106,0.1503351,0.1500599,0.1497842,0.1495053,0.1492243,0.1489385,0.1486518,0.1483658,0.148081,0.1477974,0.1475149,0.1472356,0.1469599,0.146685,0.146413,0.1461436,0.1458798,0.1456188,0.1453628,0.1451138,0.1448679,0.1446241,0.1443822,0.1441435,0.1439059,0.1436667,0.1434251,0.1431813,0.1429382,0.1426994,0.1424661,0.1422368,0.142009,0.1417862,0.1415687,0.1413521,0.1411368,0.1409189,0.1407102,0.140508,0.140303,0.1400811,0.1398337,0.1395653,0.1392854,0.138486,0.1383163,0.1381487,0.1379919,0.1378601,0.1377419,0.1376202,0.1374977,0.1373955,0.1373196,0.1372602,0.1372157,0.1371929,0.1371975,0.1372432,0.1373352,0.1374581,0.1376083,0.137787,0.1379835,0.1381946,0.1384233,0.1386741,0.1389538,0.1392587,0.1395878,0.1399497,0.140347,0.140774,0.1412263,0.1416997,0.1421846,0.142664,0.143124,0.1435705,0.144008,0.144432,0.1448528,0.1452922,0.1457618,0.1462526,0.1467434,0.1472117,0.147634,0.1479905,0.148272,0.148482,0.1486314,0.1487285,0.1487831,0.1488048,0.1487992,0.1487593,0.1486747,0.1485404,0.1483461,0.1480899,0.1477751,0.1474037,0.1469842,0.1465228,0.1460316,0.145528,0.1450297,0.1445494,0.1440914,0.143656,0.143242,0.1428462,0.1424724,0.1421204,0.1417818,0.1414602,0.1411633,0.1408882,0.1406308,0.1403896,0.1401683,0.1399777,0.1398175,0.1396756,0.139548,0.1394323,0.1393236,0.1392212,0.139119,0.1390069,0.1388835,0.1387462,0.1385952,0.1384272,0.1382438,0.1380544,0.1378661,0.137684,0.1375078,0.1373402,0.1371858,0.1370454,0.1369196,0.1368079,0.1367132,0.1366375,0.1365846,0.136558,0.1365558,0.1365774,0.1366216,0.1366858,0.1367705,0.1368788,0.1370209,0.1372052,0.1374333,0.137706,0.1380146,0.1383606,0.1387493,0.1391865,0.1396845,0.140245,0.1408627,0.1415356,0.142262,0.1430411,0.1438697,0.1447371,0.1456324,0.1465492,0.147473,0.1483828,0.1492617,0.1501051,0.1509077,0.1516572,0.1523481,0.1529805,0.153564,0.1541283,0.1547114,0.1553456,0.1560526,0.1568456,0.1577342,0.1587245,0.1598138,0.1609951,0.1622737,0.1636829,0.1652617,0.1670298,0.1690032,0.1711952,0.1736024,0.1762093,0.1789932,0.1819273,0.1849806,0.188117,0.1913038,0.1945178,0.1977274,0.2008883,0.2039559,0.2068968,0.209686,0.2123036,0.2147334,0.2169708,0.2190237,0.2208994,0.2226098,0.2241664,0.2255824,0.2268724,0.2280498,0.2291315,0.2301321,0.2310617,0.2319222,0.232711,0.2334306,0.2340835,0.2346653,0.2351735,0.2356112,0.2359851,0.2363069,0.2365881,0.2368396,0.2370677,0.2372716,0.2374511,0.2376014,0.2377147,0.2377857,0.2378059,0.2377747,0.2376932,0.2375583,0.2373696,0.237126,0.2368309,0.2364947,0.2361248,0.2357245,0.2352975,0.2348492,0.2343921,0.2339343,0.233484,0.2330558,0.2326574,0.2322883,0.2319484,0.2316467,0.2313908,0.2311765,0.2310016,0.2308625,0.2307403,0.2306193,0.2304948,0.2303704,0.230256,0.2301579,0.2300797,0.2300257,0.2300103,0.2300446,0.2301183,0.2302215,0.2303552,0.2305011,0.2306374,0.2307632,0.2308758,0.2309634,0.2310184,0.2310309,0.2309876,0.2308799,0.2307086,0.230474,0.2301724,0.22981,0.2293906,0.2289236,0.2284222,0.227888,0.2273224,0.226739,0.2261513,0.2255631,0.2249749,0.2243881,0.2238016,0.2232113,0.2226205,0.2220313,0.221439,0.2208463,0.2202574,0.2196822,0.2191245,0.2185792,0.2180538,0.217552,0.2170724,0.2166164,0.2161936,0.2158092,0.2154613,0.215147,0.2148704,0.2146435,0.214481,0.2143979,0.2144074,0.2145108,0.2146959,0.2149547,0.2152906,0.2157167,0.2162505,0.2169046,0.2176877,0.2186038,0.2196545,0.220839,0.2221578,0.2236056,0.22515,0.226743,0.2283266,0.2298438,0.2312677,0.2326065,0.2338712,0.2350551,0.2361409,0.2371179,0.2379757,0.2387156,0.2393752,0.2400057,0.2406321,0.2412615,0.2418947,0.2425344,0.2431936,0.2438691,0.2445235,0.2450833,0.245454,0.2455621,0.2454064,0.2450577,0.2446286,0.2442264,0.2439086,0.2436866,0.2435521,0.2434753,0.2434326,0.243423,0.2434407,0.243473,0.2435029,0.2435072,0.24345,0.2432894,0.2429897,0.242547,0.2419986,0.2414006,0.2407938,0.240203,0.2396399,0.2391133,0.238627,0.23817,0.2377417,0.2373425,0.2369584,0.2365744,0.2361859,0.235792,0.2353917,0.2349822,0.2345632,0.2341464,0.2337408,0.2333544,0.2329937,0.2326571,0.2323299,0.2319993,0.2316646,0.2313235,0.2309685,0.2305981,0.2302093,0.2297935,0.2293518,0.2288829,0.2283857,0.2278694,0.2273445,0.2268288,0.2263347,0.2258588,0.2253936,0.2249532,0.224562,0.2242319,0.2239737,0.2237915,0.2236824,0.2236559,0.2237216,0.223878,0.2241335,0.2245073,0.2250328,0.2257474,0.226681,0.2278519,0.2292692,0.230958,0.2329714,0.2353776,0.2382436,0.2416246,0.2455546,0.2500329,0.2550123,0.2604371,0.2662801,0.2725053,0.2790249,0.2857033,0.292372,0.2988695,0.3050804,0.3109531,0.3164516,0.3215313,0.3261666,0.3303426,0.3340431,0.3372456,0.3399377,0.3421313,0.3438406,0.3450825,0.3458795,0.3462599,0.3462568,0.3459069,0.3452509,0.3443272,0.3431708,0.3418295,0.3403504,0.3387713,0.3371281,0.3354481,0.3337539,0.3320706,0.3304119,0.3287897,0.3272122,0.3256824,0.3241974,0.3227403,0.3212869,0.3198289,0.3183703,0.3169136,0.3154725,0.3140508,0.3126486,0.3112749,0.3099448,0.30869,0.3075252,0.306463,0.3055226,0.304715,0.3040538,0.3035557,0.3032468,0.3031446,0.3032471,0.3035455,0.3040515,0.3047747,0.3057137,0.3068769,0.3082716,0.3099115,0.3118016,0.3139364,0.3163042,0.3188916,0.3216798,0.3246651,0.3278267,0.3311373,0.3345909,0.3381577,0.341795,0.3454428,0.3490427,0.3525315,0.3558291,0.3588813,0.3616669,0.3641748,0.3664113,0.3684074,0.370194,0.3718079,0.373275,0.374617,0.3758507,0.3769982,0.3780786,0.3790842,0.3800293,0.3809438,0.3818364,0.382691,0.3835107,0.3843272,0.3851445,0.3859368,0.3866757,0.3873675,0.3880046,0.3885821,0.3891076,0.3895959,0.3900283,0.3903854,0.3906531,0.3908209,0.3909048,0.3909108,0.3908366,0.3906721,0.3904452,0.3901887,0.389918,0.3896526,0.389396,0.3891562,0.3889413,0.3887387,0.3885206,0.3882394,0.3878724,0.3874342,0.3869334,0.3864116,0.3859051,0.3854019,0.3848888,0.3843787,0.3838717,0.3833794,0.3828778,0.3823322,0.381717,0.3809977,0.3802035,0.3793662,0.3784734,0.3775234,0.3765358,0.3754996,0.3744386,0.3733673,0.3722872,0.3712271,0.370215,0.3692425,0.3682843,0.3673572,0.3664817,0.3656461,0.3648306,0.3640341,0.3632357,0.3624349,0.3616436,0.3608581,0.3600937,0.3594086,0.3588461,0.3584281,0.3581704,0.35811,0.3582987,0.3588124,0.3596952,0.3609589,0.3626194,0.364687,0.3671178,0.3698717,0.3729511,0.3763197,0.3799106,0.3836502,0.3874835,0.3913626,0.3952585,0.3991807,0.4031291,0.4070593,0.4108957,0.41459,0.418088,0.4213311,0.4242363,0.4267677,0.4288696,0.4305703,0.4319675,0.433103,0.4340304,0.4348402,0.435594,0.4363227,0.4370402,0.4378347,0.4388009,0.4399916,0.4413343,0.4427269,0.4441733,0.4456428,0.4470482,0.4482116,0.4489272,0.448992,0.4483676,0.4472477,0.4460053,0.4449431,0.4441452,0.4436723,0.4434772,0.4434328,0.4435093,0.443666,0.4438378,0.4440526,0.44439,0.4448403,0.4453235,0.4457845,0.4461306,0.4462356,0.4459478,0.4452333,0.4441349,0.4427756,0.4414472,0.4403337,0.4394609,0.4387485,0.4380831,0.4374166,0.4367367,0.4360968,0.4355365,0.4350635,0.4346823,0.4343778,0.4341696,0.4340608,0.434018,0.4340124,0.4340258,0.43408,0.4341665,0.4343077,0.4345484,0.4348842,0.4353556,0.4360052,0.4368517,0.4378116,0.4388,0.4398896,0.4411232,0.4424676,0.4439373,0.4455139,0.4472238,0.4490996,0.4511503,0.4533875,0.4557287,0.4582021,0.4608483,0.4636519,0.4665736,0.4695831,0.4727283,0.4759693,0.479256,0.482529,0.4857904,0.4891215,0.4925263,0.4959705,0.4994294,0.5028341,0.5061836,0.5094705,0.5125465,0.5153961,0.5181762,0.5208777,0.5233926,0.525759,0.5279179,0.5298898,0.531794,0.5335168,0.5349079,0.5358795,0.5364413,0.5367597,0.5369003,0.5367671
412,92.2200012,12.1300001,87.8700027,45.5499992,22.7099991,18.25,87.7699966,243.8399963,34.5499992,39.5999985,3.6099999,12.46,14.1700001,1.0243874,1.0290399,1.0328994,1.0360087,1.0384202,1.0403459,1.0419967,1.0434397,1.044646,1.0456117,1.0463872,1.0469633,1.0472149,1.0470258,1.0464171,1.0454535,1.0441492,1.0424932,1.0405303,1.038316,1.0358512,1.0332012,1.0304377,1.0275435,1.0245256,1.0214158,1.0183083,1.0152888,1.012362,1.0094688,1.0065395,1.0035673,1.0004809,0.9972325,0.9938059,0.9901732,0.9862869,0.9821085,0.9775433,0.9725909,0.9672752,0.9616879,0.9559015,0.949926,0.9436834,0.9371564,0.9303174,0.9231311,0.9155447,0.9075238,0.8989643,0.8898329,0.8801181,0.8698322,0.8589739,0.8475454,0.8356262,0.8233537,0.8109787,0.7987834,0.7870767,0.7761878,0.7664483,0.7581329,0.7514023,0.7462658,0.7425739,0.7400172,0.7381667,0.7365283,0.7346244,0.7320631,0.7286209,0.7242752,0.7191945,0.7136775,0.7080773,0.702725,0.6978788,0.6936969,0.6902452,0.6875075,0.6854169,0.6838744,0.6827696,0.6819915,0.6814568,0.6811007,0.6808785,0.6807718,0.6808133,0.6810524,0.6815385,0.6823753,0.6836522,0.6854358,0.6878228,0.690885,0.6946469,0.699113,0.7042413,0.7098965,0.7158865,0.7219633,0.7278546,0.7332807,0.7379859,0.7417839,0.7445795,0.7463756,0.7472655,0.7474062,0.7470255,0.7464221,0.7459318,0.7459298,0.7467854,0.748841,0.7523949,0.7576619,0.7647322,0.7735642,0.7839836,0.7957315,0.808524,0.8221331,0.8364264,0.8513695,0.8669638,0.8831479,0.8997095,0.9162199,0.9320387,0.9463273,0.9581361,0.9665253,0.9706806,0.97,0.9640833,0.9527525,0.9360468,0.9142488,0.887894,0.8577472,0.8247515,0.7899329,0.7542795,0.718645,0.683704,0.6499352,0.6176544,0.587061,0.5582835,0.5314175,0.5065281,0.4836527,0.4627894,0.4438903,0.4268702,0.4115905,0.3978879,0.3855891,0.3745231,0.3645377,0.3554975,0.3472957,0.3398547,0.3331176,0.3270355,0.3215683,0.3166767,0.3123102,0.3084163,0.304937,0.3018069,0.2989566,0.2963169,0.2938268,0.2914253,0.2890614,0.2866913,0.2842917,0.2818592,0.2793995,0.2769378,0.2745106,0.2721536,0.2698959,0.2677562,0.2657458,0.263865,0.2621083,0.2604667,0.2589245,0.25746,0.2560539,0.2546888,0.2533546,0.2520436,0.2507494,0.2494644,0.2481796,0.2468955,0.2456166,0.2443541,0.2431189,0.2419163,0.2407491,0.2396186,0.2385183,0.2374388,0.2363698,0.2353044,0.2342376,0.2331706,0.2321057,0.2310416,0.2299789,0.228911,0.2278452,0.2267843,0.2257266,0.2246723,0.2236249,0.2225854,0.2215538,0.2205319,0.2195152,0.2185073,0.2175149,0.2165367,0.2155686,0.214604,0.2136534,0.2127177,0.2118061,0.2109162,0.2100342,0.2091609,0.2083044,0.2074664,0.2066499,0.2058505,0.2050673,0.2043007,0.2035498,0.2028177,0.2021025,0.2014032,0.2007196,0.2000524,0.1994041,0.198777,0.1981664,0.1975666,0.1969753,0.1963921,0.1958162,0.1952497,0.1946912,0.1941398,0.1935957,0.1930616,0.1925372,0.1920197,0.1915099,0.1910088,0.1905174,0.190034,0.1895585,0.1890935,0.1886425,0.1882047,0.1877791,0.1873675,0.1869715,0.1865914,0.1862255,0.185874,0.185533,0.1852059,0.1848944,0.1845972,0.1843158,0.1840479,0.183792,0.1835444,0.1833041,0.1830673,0.1828302,0.1825964,0.1823613,0.182124,0.1818835,0.1816393,0.1813917,0.1811433,0.1808899,0.1806359,0.1803814,0.1801263,0.1798721,0.1796177,0.1793643,0.1791105,0.1788584,0.1786073,0.1783564,0.1781033,0.1778489,0.1775907,0.1773324,0.1770749,0.176819,0.1765649,0.1763127,0.176064,0.1758188,0.1755739,0.175331,0.1750891,0.1748516,0.1746167,0.1743872,0.1741649,0.1739453,0.173727,0.17351,0.1732955,0.1730809,0.1728643,0.172646,0.1724265,0.1722077,0.171992,0.1717799,0.1715702,0.1713604,0.1711546,0.1709532,0.1707529,0.170555,0.1703561,0.1701666,0.169982,0.1697916,0.1695812,0.169342,0.169077,0.1687946,0.167649,0.1674727,0.1673078,0.1671568,0.1670234,0.1668978,0.1667669,0.166636,0.1665271,0.1664393,0.1663574,0.1662836,0.1662251,0.1661843,0.1661728,0.1661961,0.1662427,0.1663088,0.1663957,0.1664963,0.1666032,0.1667181,0.1668525,0.1670123,0.1671912,0.167388,0.167604,0.1678426,0.1681039,0.1683825,0.1686784,0.1689898,0.1693026,0.1696028,0.1698928,0.1701785,0.1704591,0.1707363,0.1710235,0.1713355,0.1716671,0.1720026,0.1723247,0.172613,0.1728537,0.1730405,0.1731747,0.1732653,0.1733174,0.1733396,0.1733362,0.1733037,0.1732403,0.1731457,0.1730175,0.1728465,0.1726273,0.1723622,0.1720565,0.1717161,0.1713461,0.1709575,0.1705613,0.1701693,0.1697888,0.1694218,0.1690732,0.1687442,0.1684283,0.1681275,0.167842,0.1675657,0.1673015,0.1670533,0.1668205,0.1666032,0.1663984,0.1662077,0.1660402,0.1658969,0.1657709,0.1656576,0.1655512,0.1654473,0.1653463,0.165247,0.1651451,0.1650371,0.1649184,0.1647883,0.1646426,0.1644828,0.1643173,0.1641554,0.1640022,0.1638512,0.1637018,0.1635605,0.1634293,0.1633111,0.1632073,0.1631198,0.1630488,0.1629929,0.1629516,0.1629233,0.1629073,0.1629051,0.162919,0.1629522,0.1630078,0.1630898,0.1631994,0.1633405,0.1635189,0.1637254,0.1639563,0.1642111,0.1644961,0.1648254,0.1652009,0.1656209,0.1660848,0.1665889,0.167132,0.1677108,0.1683173,0.1689464,0.1695946,0.1702501,0.170896,0.1715209,0.1721268,0.172709,0.1732544,0.1737561,0.1742101,0.1746258,0.1750289,0.1754446,0.1758946,0.1763983,0.1769698,0.1776165,0.1783407,0.1791426,0.1800197,0.1809763,0.1820407,0.1832437,0.1845996,0.1861269,0.1878412,0.1897412,0.1918198,0.194063,0.1964504,0.198954,0.2015431,0.2041951,0.2068895,0.209594,0.2122705,0.2148817,0.2173933,0.2197765,0.2220167,0.2241077,0.2260446,0.2278286,0.22946,0.2309436,0.2322881,0.2335042,0.2346057,0.2356092,0.2365296,0.2373789,0.2381672,0.2388935,0.2395512,0.2401413,0.2406701,0.241142,0.2415555,0.2419081,0.2422044,0.2424547,0.2426685,0.2428536,0.2430157,0.2431579,0.2432806,0.2433783,0.2434434,0.2434705,0.2434541,0.2433983,0.2433045,0.2431668,0.2429832,0.242755,0.2424863,0.2421846,0.241857,0.241504,0.2411245,0.2407258,0.2403222,0.2399188,0.2395204,0.2391385,0.2387811,0.2384504,0.2381492,0.2378858,0.2376596,0.2374632,0.2372967,0.2371597,0.2370409,0.236927,0.2368142,0.2367117,0.2366305,0.2365706,0.2365284,0.2365047,0.2365106,0.2365531,0.2366253,0.2367216,0.2368394,0.2369598,0.2370652,0.2371604,0.2372442,0.2373002,0.2373248,0.2373149,0.2372577,0.2371447,0.2369744,0.2367471,0.2364634,0.2361316,0.2357562,0.235344,0.2349037,0.2344356,0.2339386,0.2334233,0.2329025,0.232383,0.2318672,0.2313517,0.2308327,0.2303092,0.2297827,0.2292516,0.2287136,0.2281758,0.2276423,0.2271178,0.2266064,0.2261048,0.2256174,0.2251468,0.2246936,0.2242644,0.2238709,0.223511,0.2231784,0.2228719,0.2225976,0.2223663,0.2221856,0.2220661,0.2220192,0.2220442,0.222129,0.2222703,0.2224811,0.2227789,0.2231773,0.2236865,0.2243137,0.2250581,0.2259169,0.2268879,0.2279765,0.2291848,0.2304896,0.2318518,0.2332163,0.2345286,0.2357616,0.236916,0.2379997,0.2390076,0.2399233,0.2407374,0.2414438,0.242047,0.2425761,0.2430736,0.2435675,0.2440713,0.2445907,0.2451248,0.245681,0.2462636,0.2468505,0.2473775,0.2477524,0.2479056,0.247836,0.2475989,0.2472842,0.2469831,0.2467476,0.2465882,0.2464962,0.2464456,0.2464174,0.2464097,0.2464157,0.2464264,0.2464323,0.2464164,0.2463475,0.2461883,0.2459064,0.2455021,0.2450093,0.2444735,0.2439287,0.2433965,0.2428874,0.2424101,0.2419672,0.2415448,0.2411377,0.2407484,0.2403713,0.2399996,0.2396329,0.2392638,0.238883,0.2384851,0.238074,0.2376672,0.2372731,0.2368979,0.2365476,0.2362186,0.2358985,0.2355805,0.2352651,0.2349466,0.2346191,0.2342842,0.2339398,0.233575,0.2331838,0.2327614,0.2323107,0.2318439,0.2313721,0.2309106,0.2304677,0.2300381,0.2296139,0.2292116,0.2288567,0.2285602,0.2283303,0.2281649,0.2280554,0.2280095,0.2280415,0.2281538,0.2283537,0.228657,0.2290908,0.229684,0.2304611,0.2314442,0.2326502,0.2340993,0.2358268,0.2378852,0.2403385,0.243241,0.2466204,0.2504789,0.2547868,0.2595087,0.2646314,0.270131,0.2759384,0.2819339,0.2879523,0.2938293,0.2994577,0.304801,0.3098328,0.3145133,0.31881,0.3226897,0.3261302,0.3291158,0.3316373,0.3337053,0.335334,0.3365372,0.337332,0.3377426,0.3377974,0.33753,0.3369813,0.3361908,0.3351904,0.3340204,0.3327171,0.3313092,0.329831,0.3283106,0.3267736,0.3252495,0.3237512,0.3222855,0.3208579,0.3194712,0.3181236,0.3168025,0.3154896,0.3141786,0.3128697,0.3115578,0.3102499,0.3089512,0.3076749,0.3064388,0.3052495,0.3041263,0.3030786,0.3021169,0.3012623,0.3005296,0.2999306,0.2994792,0.2992016,0.2991112,0.2992045,0.2994838,0.2999671,0.3006572,0.3015454,0.3026368,0.3039401,0.3054692,0.30723,0.3092216,0.3114359,0.3138616,0.3164848,0.3193041,0.3222946,0.3254237,0.328682,0.3320366,0.3354434,0.3388496,0.3422098,0.345467,0.3485453,0.3513995,0.3540144,0.3563809,0.3585103,0.3604354,0.362174,0.3637452,0.3651752,0.3664953,0.3677217,0.3688692,0.3699565,0.3709774,0.3719367,0.3728482,0.3737203,0.3745524,0.3753473,0.376119,0.376866,0.3775729,0.3782195,0.3788163,0.379361,0.3798549,0.3803053,0.3807105,0.3810388,0.3812878,0.3814716,0.3815788,0.3816022,0.3815377,0.3813913,0.3811624,0.380877,0.3805591,0.3802162,0.3798703,0.3795386,0.3792391,0.3789767,0.3787274,0.3784598,0.3781357,0.3777379,0.3772712,0.376731,0.3761597,0.3756127,0.3750945,0.3745873,0.374088,0.3735861,0.3730944,0.3725944,0.3720561,0.3714554,0.370752,0.3699646,0.3691191,0.3682092,0.3672469,0.3662606,0.3652349,0.3641805,0.3631061,0.3620164,0.3609355,0.3598805,0.3588544,0.3578599,0.3569129,0.3560032,0.3551119,0.354245,0.3534136,0.3525796,0.3517359,0.350907,0.3500922,0.3493069,0.3486155,0.348056,0.3476367,0.3473707,0.3473035,0.3474831,0.3479579,0.348742,0.3498327,0.3512432,0.3530013,0.3550929,0.3575004,0.3602463,0.3633062,0.3666086,0.3700753,0.3736612,0.3773409,0.3810956,0.3849178,0.3887905,0.3926659,0.396468,0.4001511,0.4036613,0.4069321,0.4098739,0.4124537,0.4146211,0.4163955,0.4178592,0.4190457,0.4199993,0.4207975,0.4214937,0.4221146,0.4226717,0.4232611,0.4239984,0.4249564,0.426071,0.4272418,0.4284828,0.429784,0.431078,0.4321961,0.432918,0.4330151,0.4324355,0.4313607,0.4301547,0.4291244,0.4283519,0.4278843,0.427672,0.4275964,0.427634,0.4277534,0.4278975,0.4280854,0.4283701,0.4287371,0.4291435,0.4295701,0.42992,0.4300617,0.4298551,0.4292462,0.4282422,0.4269692,0.4257232,0.4246717,0.4238459,0.4231932,0.4226152,0.4220539,0.4214868,0.4209688,0.4205284,0.4201565,0.4198595,0.4196242,0.4194675,0.4194078,0.4194296,0.4194956,0.4195645,0.41965,0.4197501,0.4198954,0.4201449,0.4205072,0.421002,0.4216314,0.4224043,0.4232795,0.4242329,0.4253484,0.4266279,0.4280045,0.4294768,0.4310158,0.4326593,0.4344634,0.4364311,0.4385552,0.4407669,0.4431154,0.4456449,0.448338,0.4511447,0.454005,0.4569577,0.459995,0.463092,0.4661848,0.4692609,0.4723941,0.4756027,0.4788716,0.4821714,0.4854013,0.4885486,0.491635,0.4945256,0.4972191,0.4999156,0.5026083,0.5051604,0.5075861,0.5097705,0.5116554,0.5133279,0.5147677,0.5160083,0.5170329,0.5177383,0.5181524,0.5182959,0.5181283
