sample,dm,ash,om,ndf,adf,protein,tddm,gas_g_dm_incubach4_g_dm_incubatch4_g_digested,ch4_g_dm_incubatch4_g_digested,ch4_g_digested,part,ch4_8h,ch4_24h,400,402,404,406,408,410,412,414,416,418,420,422,424,426,428,430,432,434,436,438,440,442,444,446,448,450,452,454,456,458,460,462,464,466,468,470,472,474,476,478,480,482,484,486,488,490,492,494,496,498,500,502,504,506,508,510,512,514,516,518,520,522,524,526,528,530,532,534,536,538,540,542,544,546,548,550,552,554,556,558,560,562,564,566,568,570,572,574,576,578,580,582,584,586,588,590,592,594,596,598,600,602,604,606,608,610,612,614,616,618,620,622,624,626,628,630,632,634,636,638,640,642,644,646,648,650,652,654,656,658,660,662,664,666,668,670,672,674,676,678,680,682,684,686,688,690,692,694,696,698,700,702,704,706,708,710,712,714,716,718,720,722,724,726,728,730,732,734,736,738,740,742,744,746,748,750,752,754,756,758,760,762,764,766,768,770,772,774,776,778,780,782,784,786,788,790,792,794,796,798,800,802,804,806,808,810,812,814,816,818,820,822,824,826,828,830,832,834,836,838,840,842,844,846,848,850,852,854,856,858,860,862,864,866,868,870,872,874,876,878,880,882,884,886,888,890,892,894,896,898,900,902,904,906,908,910,912,914,916,918,920,922,924,926,928,930,932,934,936,938,940,942,944,946,948,950,952,954,956,958,960,962,964,966,968,970,972,974,976,978,980,982,984,986,988,990,992,994,996,998,1000,1002,1004,1006,1008,1010,1012,1014,1016,1018,1020,1022,1024,1026,1028,1030,1032,1034,1036,1038,1040,1042,1044,1046,1048,1050,1052,1054,1056,1058,1060,1062,1064,1066,1068,1070,1072,1074,1076,1078,1080,1082,1084,1086,1088,1090,1092,1094,1096,1098,1100,1102,1104,1106,1108,1110,1112,1114,1116,1118,1120,1122,1124,1126,1128,1130,1132,1134,1136,1138,1140,1142,1144,1146,1148,1150,1152,1154,1156,1158,1160,1162,1164,1166,1168,1170,1172,1174,1176,1178,1180,1182,1184,1186,1188,1190,1192,1194,1196,1198,1200,1202,1204,1206,1208,1210,1212,1214,1216,1218,1220,1222,1224,1226,1228,1230,1232,1234,1236,1238,1240,1242,1244,1246,1248,1250,1252,1254,1256,1258,1260,1262,1264,1266,1268,1270,1272,1274,1276,1278,1280,1282,1284,1286,1288,1290,1292,1294,1296,1298,1300,1302,1304,1306,1308,1310,1312,1314,1316,1318,1320,1322,1324,1326,1328,1330,1332,1334,1336,1338,1340,1342,1344,1346,1348,1350,1352,1354,1356,1358,1360,1362,1364,1366,1368,1370,1372,1374,1376,1378,1380,1382,1384,1386,1388,1390,1392,1394,1396,1398,1400,1402,1404,1406,1408,1410,1412,1414,1416,1418,1420,1422,1424,1426,1428,1430,1432,1434,1436,1438,1440,1442,1444,1446,1448,1450,1452,1454,1456,1458,1460,1462,1464,1466,1468,1470,1472,1474,1476,1478,1480,1482,1484,1486,1488,1490,1492,1494,1496,1498,1500,1502,1504,1506,1508,1510,1512,1514,1516,1518,1520,1522,1524,1526,1528,1530,1532,1534,1536,1538,1540,1542,1544,1546,1548,1550,1552,1554,1556,1558,1560,1562,1564,1566,1568,1570,1572,1574,1576,1578,1580,1582,1584,1586,1588,1590,1592,1594,1596,1598,1600,1602,1604,1606,1608,1610,1612,1614,1616,1618,1620,1622,1624,1626,1628,1630,1632,1634,1636,1638,1640,1642,1644,1646,1648,1650,1652,1654,1656,1658,1660,1662,1664,1666,1668,1670,1672,1674,1676,1678,1680,1682,1684,1686,1688,1690,1692,1694,1696,1698,1700,1702,1704,1706,1708,1710,1712,1714,1716,1718,1720,1722,1724,1726,1728,1730,1732,1734,1736,1738,1740,1742,1744,1746,1748,1750,1752,1754,1756,1758,1760,1762,1764,1766,1768,1770,1772,1774,1776,1778,1780,1782,1784,1786,1788,1790,1792,1794,1796,1798,1800,1802,1804,1806,1808,1810,1812,1814,1816,1818,1820,1822,1824,1826,1828,1830,1832,1834,1836,1838,1840,1842,1844,1846,1848,1850,1852,1854,1856,1858,1860,1862,1864,1866,1868,1870,1872,1874,1876,1878,1880,1882,1884,1886,1888,1890,1892,1894,1896,1898,1900,1902,1904,1906,1908,1910,1912,1914,1916,1918,1920,1922,1924,1926,1928,1930,1932,1934,1936,1938,1940,1942,1944,1946,1948,1950,1952,1954,1956,1958,1960,1962,1964,1966,1968,1970,1972,1974,1976,1978,1980,1982,1984,1986,1988,1990,1992,1994,1996,1998,2000,2002,2004,2006,2008,2010,2012,2014,2016,2018,2020,2022,2024,2026,2028,2030,2032,2034,2036,2038,2040,2042,2044,2046,2048,2050,2052,2054,2056,2058,2060,2062,2064,2066,2068,2070,2072,2074,2076,2078,2080,2082,2084,2086,2088,2090,2092,2094,2096,2098,2100,2102,2104,2106,2108,2110,2112,2114,2116,2118,2120,2122,2124,2126,2128,2130,2132,2134,2136,2138,2140,2142,2144,2146,2148,2150,2152,2154,2156,2158,2160,2162,2164,2166,2168,2170,2172,2174,2176,2178,2180,2182,2184,2186,2188,2190,2192,2194,2196,2198,2200,2202,2204,2206,2208,2210,2212,2214,2216,2218,2220,2222,2224,2226,2228,2230,2232,2234,2236,2238,2240,2242,2244,2246,2248,2250,2252,2254,2256,2258,2260,2262,2264,2266,2268,2270,2272,2274,2276,2278,2280,2282,2284,2286,2288,2290,2292,2294,2296,2298,2300,2302,2304,2306,2308,2310,2312,2314,2316,2318,2320,2322,2324,2326,2328,2330,2332,2334,2336,2338,2340,2342,2344,2346,2348,2350,2352,2354,2356,2358,2360,2362,2364,2366,2368,2370,2372,2374,2376,2378,2380,2382,2384,2386,2388,2390,2392,2394,2396,2398,2400,2402,2404,2406,2408,2410,2412,2414,2416,2418,2420,2422,2424,2426,2428,2430,2432,2434,2436,2438,2440,2442,2444,2446,2448,2450,2452,2454,2456,2458,2460,2462,2464,2466,2468,2470,2472,2474,2476,2478,2480,2482,2484,2486,2488,2490,2492,2494,2496,2498
353,92.6100006,12.8599997,87.1399994,38.5900002,30.5,25.7099991,76.7399979,168.6799927,28.6100006,37.2799988,4.5900002,17.4200001,16.9599991,1.0313121,1.0359012,1.0395392,1.0423775,1.0446063,1.0464973,1.0482259,1.0498011,1.0512046,1.0524577,1.0535434,1.0543904,1.0549543,1.0552266,1.0552276,1.0550013,1.0545764,1.0539037,1.0529296,1.0516801,1.0502263,1.0486887,1.0470982,1.0453572,1.0434183,1.0412475,1.0388196,1.0360849,1.0329758,1.0294708,1.0256068,1.0214814,1.0171125,1.0125309,1.0077918,1.0029664,0.9981347,0.9933566,0.9885835,0.9838288,0.9791035,0.9744537,0.9698966,0.9654244,0.9609905,0.9566259,0.9523519,0.9481844,0.9441238,0.9401942,0.9363423,0.9325403,0.9287367,0.9248893,0.9209328,0.9167736,0.9123541,0.9076335,0.9026454,0.8974336,0.8920738,0.886683,0.881422,0.8764628,0.8719537,0.867989,0.8645969,0.8617209,0.8592324,0.8569418,0.8546278,0.8520571,0.849032,0.8454199,0.8411804,0.8363683,0.831118,0.8256118,0.8200442,0.8145724,0.8092861,0.8041971,0.7992675,0.7944265,0.7895901,0.7846797,0.7796597,0.7745261,0.7693018,0.7640398,0.7588484,0.7538558,0.7491879,0.7450172,0.7414907,0.7387269,0.7368693,0.7360213,0.7362134,0.7374271,0.7395722,0.7424476,0.7457843,0.7492542,0.7525113,0.7552212,0.7570975,0.7579448,0.7576736,0.7563045,0.7539597,0.7508271,0.7471512,0.7432123,0.7392834,0.7356394,0.7325292,0.730177,0.7287994,0.7286072,0.7298006,0.7325784,0.7371198,0.7435721,0.752013,0.7624347,0.7747239,0.7886563,0.8038785,0.8199031,0.8361321,0.8518749,0.8663845,0.8788602,0.8885056,0.8946091,0.8966336,0.894316,0.8877004,0.8771833,0.86347,0.8474866,0.8302389,0.8126684,0.7955609,0.7794921,0.7648077,0.7516425,0.7399651,0.7296085,0.7203152,0.7117723,0.7036461,0.6956161,0.6873852,0.6787001,0.6693606,0.6592275,0.6482331,0.6363539,0.623621,0.6101137,0.5959519,0.5812923,0.5663091,0.551191,0.5361317,0.521315,0.5068985,0.4930145,0.4797635,0.4672037,0.4553617,0.4442328,0.4337854,0.4239685,0.4147221,0.4059882,0.3977035,0.3898087,0.3822455,0.3749703,0.3679555,0.3611811,0.3546457,0.3483614,0.3423414,0.3365944,0.3311217,0.3259205,0.3209813,0.316292,0.3118402,0.3076087,0.3035741,0.2997141,0.2960076,0.2924419,0.2890068,0.2856913,0.2824816,0.2793616,0.2763252,0.2733736,0.270518,0.2677701,0.2651327,0.2626032,0.2601768,0.2578439,0.255594,0.2534161,0.2513013,0.2492409,0.2472333,0.2452786,0.2433734,0.2415161,0.239697,0.2379211,0.2361887,0.2344956,0.2328389,0.2312198,0.2296366,0.2280876,0.2265732,0.2250869,0.2236296,0.2222047,0.2208085,0.2194359,0.2180789,0.2167468,0.2154389,0.2141624,0.2129133,0.2116769,0.2104536,0.2092517,0.2080725,0.206918,0.2057836,0.2046687,0.203574,0.2024982,0.2014432,0.2004066,0.1993881,0.1983872,0.1974043,0.1964415,0.1955009,0.1945773,0.1936646,0.19276,0.1918622,0.1909702,0.1900868,0.189211,0.1883429,0.1874828,0.1866333,0.1857934,0.1849597,0.1841334,0.1833159,0.1825085,0.1817097,0.1809206,0.1801457,0.1793897,0.1786527,0.1779342,0.1772368,0.1765629,0.1759132,0.1752857,0.1746788,0.1740873,0.1735132,0.1729577,0.1724187,0.171896,0.1713858,0.1708867,0.1703959,0.1699133,0.1694355,0.168959,0.1684873,0.1680161,0.1675449,0.1670732,0.166601,0.166129,0.1656601,0.1651904,0.1647245,0.164263,0.163806,0.1633547,0.1629081,0.1624671,0.1620298,0.1615976,0.1611688,0.1607418,0.1603135,0.1598842,0.1594514,0.1590186,0.1585872,0.1581585,0.1577331,0.1573112,0.1568942,0.1564821,0.1560719,0.1556658,0.1552632,0.1548672,0.1544755,0.1540902,0.1537135,0.1533414,0.1529732,0.1526091,0.15225,0.1518932,0.1515359,0.1511787,0.1508223,0.1504681,0.1501186,0.1497753,0.1494384,0.1491057,0.1487812,0.1484651,0.1481539,0.1478482,0.147544,0.147252,0.1469682,0.1466824,0.1463821,0.1460593,0.1457188,0.1453701,0.144769,0.144537,0.144308,0.1440921,0.1439071,0.1437445,0.1435847,0.1434295,0.1433016,0.1432058,0.1431318,0.1430808,0.1430639,0.1430906,0.143169,0.1432983,0.1434684,0.1436755,0.1439157,0.1441773,0.1444538,0.1447459,0.1450604,0.1454055,0.1457819,0.1461897,0.1466313,0.1471122,0.1476348,0.1481936,0.1487795,0.1493758,0.1499556,0.1505003,0.1510148,0.1515053,0.1519714,0.1524246,0.1528881,0.153375,0.1538743,0.1543616,0.1548108,0.1551961,0.155499,0.1557114,0.1558406,0.1559052,0.1559187,0.155895,0.1558455,0.1557783,0.1556916,0.1555741,0.1554134,0.1551897,0.1548917,0.15452,0.1540749,0.153559,0.1529818,0.1523637,0.1517276,0.1510965,0.1504883,0.1499118,0.1493724,0.1488701,0.1483991,0.1479594,0.1475485,0.1471599,0.1467951,0.1464561,0.1461399,0.1458456,0.1455723,0.1453242,0.1451112,0.1449334,0.1447807,0.1446473,0.1445287,0.1444196,0.1443207,0.1442289,0.1441315,0.1440195,0.143888,0.1437392,0.1435721,0.1433909,0.143208,0.1430339,0.1428705,0.1427138,0.1425692,0.1424435,0.1423359,0.1422454,0.1421707,0.1421171,0.1420899,0.1420918,0.1421243,0.1421836,0.1422687,0.1423846,0.1425332,0.1427134,0.1429273,0.143185,0.1434948,0.1438562,0.1442669,0.1447215,0.1452253,0.1457815,0.1463928,0.14707,0.1478161,0.1486277,0.1494992,0.1504176,0.1513681,0.1523401,0.1533253,0.1543185,0.1553181,0.1563197,0.157316,0.1582984,0.1592635,0.1602048,0.1611109,0.1619781,0.1628123,0.1636331,0.1644763,0.1653838,0.1663922,0.1675267,0.1688003,0.1702148,0.1717643,0.1734376,0.1752187,0.1771012,0.1791092,0.1812802,0.1836399,0.186209,0.1889951,0.1919796,0.1951216,0.1983638,0.2016453,0.2049122,0.2081274,0.2112741,0.2143468,0.2173331,0.2202103,0.2229505,0.2255284,0.2279267,0.2301393,0.2321648,0.2340068,0.2356785,0.2371938,0.23857,0.2398199,0.2409556,0.2419985,0.2429716,0.2438947,0.2447812,0.2456359,0.2464553,0.2472349,0.2479731,0.2486683,0.2493125,0.2498922,0.250401,0.2508465,0.2512431,0.2516029,0.2519349,0.252248,0.2525477,0.2528339,0.2530965,0.2533215,0.2534995,0.2536248,0.2536979,0.2537106,0.2536477,0.2535058,0.2532893,0.2530057,0.2526668,0.252278,0.2518413,0.2513676,0.2508731,0.2503744,0.2498775,0.2493851,0.2489097,0.2484649,0.2480554,0.2476826,0.2473494,0.2470524,0.2467821,0.2465368,0.246318,0.2461082,0.2458849,0.2456439,0.2453952,0.2451507,0.2449176,0.2447034,0.244518,0.2443773,0.2442937,0.244263,0.2442742,0.2443217,0.2443921,0.2444672,0.2445417,0.244609,0.2446558,0.2446777,0.2446683,0.2446124,0.2444996,0.2443314,0.2441058,0.2438105,0.2434492,0.24303,0.2425624,0.2420583,0.2415231,0.240965,0.240399,0.2398344,0.2392807,0.2387486,0.2382379,0.2377414,0.2372522,0.2367734,0.2363057,0.2358428,0.2353899,0.2349512,0.2345291,0.2341252,0.2337368,0.2333741,0.2330451,0.2327505,0.2324953,0.2322884,0.2321276,0.2320118,0.2319469,0.231945,0.2320237,0.2321968,0.2324768,0.2328724,0.2333742,0.2339596,0.2346172,0.2353508,0.2361687,0.2370816,0.2380972,0.2392199,0.2404448,0.2417557,0.2431327,0.2445678,0.2460589,0.2475896,0.2491303,0.2506384,0.2520702,0.2534061,0.2546648,0.2558768,0.2570512,0.2581784,0.2592496,0.2602583,0.2612125,0.2621496,0.2631137,0.2641172,0.265149,0.2661915,0.2672271,0.2682499,0.2692491,0.2701791,0.270939,0.271385,0.2713969,0.2709617,0.270188,0.2692592,0.2683561,0.2675873,0.2669842,0.2665367,0.2662097,0.2659782,0.265839,0.2657818,0.2657937,0.265856,0.2659255,0.265935,0.2658131,0.265503,0.2649961,0.2643389,0.2636091,0.2628727,0.2621714,0.2615251,0.260943,0.2604279,0.259966,0.2595479,0.2591672,0.2588105,0.2584679,0.2581397,0.2578176,0.2574857,0.2571366,0.2567753,0.2564163,0.2560657,0.2557321,0.2554246,0.255141,0.2548626,0.2545739,0.2542705,0.2539489,0.2536068,0.2532418,0.2528474,0.2524175,0.2519591,0.2514805,0.2509868,0.2504869,0.249988,0.2495036,0.2490494,0.2486304,0.2482451,0.2479129,0.2476583,0.2474909,0.2474238,0.2474673,0.2476234,0.247897,0.2482944,0.248823,0.2495071,0.250384,0.2515033,0.2529176,0.254668,0.2567772,0.2592615,0.2621574,0.2655248,0.2694352,0.2739597,0.2791515,0.2850333,0.2915796,0.2987152,0.3063666,0.314488,0.3230113,0.3318037,0.3406692,0.3493712,0.3576975,0.3655199,0.3727945,0.3795004,0.3856118,0.3911156,0.3960094,0.4002975,0.4039874,0.4070965,0.4096524,0.4116812,0.4132164,0.414291,0.4149339,0.4151793,0.4150687,0.4146433,0.4139357,0.4129711,0.4117841,0.4104113,0.4088877,0.4072512,0.4055351,0.4037657,0.4019614,0.4001262,0.3982655,0.3963914,0.3945187,0.3926551,0.3907991,0.3889427,0.3870878,0.3852473,0.3834241,0.3816251,0.3798539,0.3781216,0.3764454,0.3748273,0.3732795,0.371805,0.3704061,0.3690945,0.3678777,0.3667618,0.3657559,0.3648837,0.3641661,0.3636143,0.3632286,0.3630169,0.3629891,0.3631523,0.3635209,0.3641081,0.3649299,0.3659833,0.3672575,0.368747,0.3704429,0.3723279,0.3744011,0.3766462,0.3790374,0.3815688,0.3842221,0.386973,0.3897685,0.3925442,0.3952331,0.3977582,0.4000681,0.4021395,0.4039515,0.4055051,0.4068354,0.4079812,0.4089907,0.4098966,0.4107173,0.4114683,0.4121822,0.4128945,0.4136015,0.4143004,0.4149987,0.4157069,0.4164346,0.4171908,0.4179776,0.4187765,0.4195744,0.4203676,0.4211675,0.4219491,0.42269,0.4233844,0.4240327,0.424616,0.4251421,0.4256203,0.426026,0.4263494,0.4265987,0.4267973,0.4269522,0.4270857,0.4272224,0.427372,0.4275422,0.4277288,0.4279431,0.4281814,0.4284005,0.4285587,0.4286257,0.4286005,0.4285017,0.4283281,0.4281171,0.4279196,0.4277427,0.4275743,0.4274018,0.4271996,0.4269736,0.4266939,0.42632,0.4258438,0.425255,0.424583,0.4238565,0.4230764,0.4222571,0.4214259,0.4205635,0.4196739,0.4187616,0.4178295,0.4168986,0.4159815,0.4150732,0.4141711,0.4133075,0.4125026,0.4117406,0.4109887,0.4102163,0.4093695,0.408439,0.4074655,0.4064906,0.4055588,0.4047311,0.4040569,0.4035821,0.403326,0.4033029,0.4035552,0.4041686,0.4051841,0.4065841,0.408359,0.4105263,0.4130711,0.4159774,0.4192387,0.4227714,0.4264582,0.430209,0.4339795,0.4377352,0.4414469,0.4451165,0.4487478,0.4523036,0.4557107,0.4589369,0.4619591,0.4647423,0.467214,0.4693559,0.4711412,0.4726299,0.4739527,0.475178,0.4763665,0.4775966,0.4789068,0.4803123,0.48183,0.483539,0.4854868,0.4876474,0.4898821,0.4920781,0.4942601,0.4964285,0.4985223,0.5003192,0.5014588,0.5015476,0.5004615,0.4985048,0.4963009,0.4943905,0.4929956,0.4922012,0.4918941,0.4918705,0.492084,0.4924989,0.4930075,0.4935784,0.494264,0.4950584,0.4959234,0.4968596,0.4977663,0.4984247,0.4985507,0.4979953,0.4968056,0.4952406,0.4936988,0.4923761,0.4913222,0.4905082,0.4898145,0.4891376,0.4884427,0.4877924,0.4872224,0.4867573,0.4864318,0.486213,0.4860704,0.4859784,0.485902,0.485822,0.4857401,0.4857005,0.4856986,0.4857394,0.4858708,0.4861285,0.486564,0.4871759,0.4879629,0.4888778,0.4898639,0.4909858,0.4922752,0.4937014,0.4952686,0.4969217,0.4986711,0.5005702,0.5026273,0.5048392,0.5071518,0.5096233,0.5122896,0.5151357,0.5181232,0.5211481,0.5241444,0.5270532,0.5299338,0.5328562,0.5358567,0.538947,0.5420384,0.5450802,0.5481356,0.551197,0.5542243,0.5571491,0.5597935,0.5621684,0.5644615,0.5666363,0.5685463,0.5702407,0.5717313,0.5730994,0.5744287,0.5755457,0.5763217,0.5767501,0.5768517,0.5767121,0.5763751,0.5758653
354,92.9800034,10.5100002,89.4899979,37.5499992,28.9300003,26.9300003,76.8000031,199.2899933,30.8199997,40.2700005,3.8499999,15.9099998,15.4700003,1.0288541,1.0330439,1.036634,1.0397491,1.0423304,1.0443577,1.0459585,1.0473485,1.0486608,1.0498884,1.0509845,1.0518885,1.0524877,1.0526968,1.0525799,1.0522488,1.0517324,1.0510104,1.0501003,1.0490371,1.0478561,1.046646,1.0454062,1.0440181,1.0424317,1.0406163,1.0385382,1.0361366,1.0333569,1.0301943,1.0266705,1.022851,1.0187367,1.0143712,1.0098541,1.0053041,1.0008163,0.9964364,0.9920932,0.9877918,0.9835564,0.9794433,0.9754522,0.9715384,0.967609,0.9636511,0.9596618,0.9556581,0.9516443,0.9476351,0.9435669,0.9394227,0.9351766,0.9308069,0.9262584,0.9214442,0.9163097,0.9108111,0.9049858,0.8989002,0.8926665,0.8864476,0.8804548,0.8749083,0.8699976,0.8658422,0.8624691,0.8598006,0.8576725,0.8558382,0.8539974,0.8518317,0.849074,0.845551,0.8412139,0.8361357,0.8304941,0.8245317,0.8184982,0.8125868,0.8069013,0.8014473,0.7961656,0.7909638,0.7857441,0.7804222,0.7749642,0.7693777,0.7637082,0.7580382,0.7525074,0.7472724,0.7424861,0.7383495,0.7350386,0.7326932,0.7314635,0.731445,0.7326486,0.7350247,0.7384375,0.7426237,0.7472416,0.7518902,0.7561548,0.7596363,0.7619969,0.7630162,0.7626109,0.7608344,0.757858,0.7539266,0.7493484,0.7444746,0.7396489,0.7352066,0.7314454,0.728631,0.7270141,0.7268329,0.7283126,0.7316742,0.73711,0.7447684,0.7547203,0.7669417,0.781287,0.7974827,0.8151145,0.8336266,0.8523405,0.8704711,0.8871682,0.9015283,0.9126492,0.919707,0.9220568,0.9193612,0.9116477,0.8993572,0.8832838,0.8644627,0.8440102,0.8229674,0.8022034,0.7823609,0.763837,0.7468064,0.7312685,0.7170826,0.704016,0.6917804,0.6800651,0.668574,0.6570423,0.6452605,0.6330803,0.620416,0.6072474,0.5935891,0.5794981,0.5650664,0.5504122,0.5356784,0.5210133,0.5065681,0.4924886,0.4789051,0.4659204,0.4536128,0.4420316,0.4311895,0.4210758,0.411657,0.4028814,0.3946859,0.3870033,0.3797733,0.3729354,0.366436,0.3602216,0.3542502,0.348493,0.3429274,0.3375483,0.3323615,0.3273734,0.3225878,0.3180028,0.3136146,0.309414,0.3053911,0.301537,0.2978378,0.2942741,0.2908287,0.2874859,0.284237,0.281076,0.2779962,0.2749876,0.2720378,0.2691455,0.2663164,0.2635637,0.2608992,0.258326,0.2558434,0.2534498,0.2511376,0.2488973,0.2467185,0.2445927,0.242512,0.2404758,0.2384845,0.236535,0.2346258,0.2327478,0.2309073,0.2291057,0.2273392,0.2256051,0.2239044,0.2222362,0.2205995,0.2189953,0.217418,0.215869,0.214352,0.2128628,0.2113961,0.2099451,0.2085201,0.2071202,0.2057524,0.2044129,0.2030874,0.2017763,0.2004873,0.1992219,0.1979821,0.1967633,0.1955646,0.1943862,0.1932266,0.1920887,0.1909702,0.1898703,0.1887887,0.1877256,0.1866823,0.1856601,0.1846544,0.1836595,0.1826726,0.1816923,0.180717,0.1797489,0.1787866,0.17783,0.1768797,0.1759385,0.1750059,0.1740789,0.1731585,0.1722466,0.171345,0.1704524,0.1695697,0.1687005,0.1678498,0.1670184,0.1662065,0.1654169,0.1646518,0.1639121,0.1631961,0.1625035,0.1618297,0.1611772,0.1605471,0.1599373,0.1593487,0.1587782,0.1582237,0.1576813,0.1571491,0.1566227,0.1560978,0.1555778,0.1550583,0.1545386,0.1540178,0.1534956,0.152973,0.152453,0.1519315,0.1514133,0.1508992,0.1503892,0.1498851,0.1493861,0.1488933,0.1484047,0.1479217,0.1474423,0.146965,0.1464865,0.1460069,0.1455238,0.1450407,0.1445594,0.1440807,0.1436051,0.1431324,0.142665,0.1422033,0.1417444,0.1412904,0.1408407,0.140398,0.1399601,0.139529,0.139107,0.1386901,0.1382771,0.1378679,0.1374636,0.1370622,0.1366614,0.1362613,0.1358619,0.1354657,0.1350759,0.1346939,0.1343185,0.1339473,0.1335841,0.1332299,0.1328833,0.1325473,0.1322186,0.1319062,0.1316027,0.1312942,0.1309648,0.130605,0.1302193,0.1298221,0.1292168,0.1289414,0.1286855,0.1284524,0.128249,0.1280615,0.1278736,0.1276907,0.1275378,0.1274227,0.1273359,0.1272769,0.1272541,0.1272728,0.1273433,0.1274711,0.127648,0.12787,0.1281326,0.1284188,0.1287163,0.129028,0.1293695,0.1297499,0.1301619,0.1306087,0.1311051,0.1316549,0.1322485,0.1328744,0.1335225,0.1341773,0.1348162,0.1354214,0.1359947,0.136538,0.1370475,0.1375367,0.1380353,0.1385608,0.1390981,0.1396185,0.1400961,0.1405051,0.1408246,0.1410434,0.1411695,0.141225,0.1412244,0.1411814,0.1411073,0.1410084,0.1408838,0.1407244,0.1405186,0.1402473,0.1399022,0.1394878,0.1390062,0.1384603,0.1378568,0.137211,0.1365454,0.135887,0.1352555,0.1346576,0.1340948,0.1335633,0.1330567,0.1325802,0.132135,0.1317136,0.1313191,0.1309555,0.130619,0.1303064,0.1300167,0.129753,0.1295245,0.1293321,0.1291679,0.1290297,0.1289144,0.1288115,0.128714,0.1286166,0.1285077,0.1283808,0.1282344,0.1280708,0.1278862,0.1276822,0.1274721,0.1272712,0.1270867,0.1269125,0.126747,0.126594,0.1264574,0.1263422,0.1262489,0.1261803,0.1261388,0.1261261,0.1261445,0.1261938,0.1262752,0.1263914,0.1265425,0.12673,0.1269578,0.1272311,0.1275522,0.1279257,0.1283595,0.1288518,0.1294073,0.1300262,0.1307058,0.131456,0.1322829,0.1331845,0.1341499,0.1351622,0.1362095,0.1372835,0.138374,0.1394756,0.1405882,0.1417042,0.1428094,0.1438911,0.1449445,0.1459608,0.1469271,0.1478373,0.1486928,0.1495132,0.150338,0.1512105,0.1521729,0.1532594,0.1544866,0.1558523,0.1573484,0.158971,0.1607152,0.16258,0.1645909,0.1667867,0.1691924,0.1718259,0.1746904,0.1777657,0.1810184,0.1844055,0.1878757,0.1913791,0.1948767,0.1983411,0.2017488,0.2050685,0.208268,0.2113157,0.2141822,0.2168472,0.2193041,0.2215502,0.2235878,0.2254294,0.2270891,0.2285869,0.2299392,0.2311609,0.2322747,0.2333028,0.2342655,0.2351816,0.236062,0.236902,0.2376933,0.238436,0.2391344,0.2397852,0.2403759,0.2408985,0.2413583,0.2417705,0.2421493,0.2425059,0.2428489,0.2431803,0.2434975,0.2437912,0.2440508,0.2442689,0.2444361,0.2445501,0.2446061,0.2445921,0.2445031,0.2443365,0.2440933,0.2437844,0.2434235,0.2430204,0.2425835,0.2421203,0.2416465,0.2411756,0.2407151,0.2402767,0.2398709,0.2395011,0.2391673,0.2388724,0.2386159,0.2383907,0.2381936,0.2380246,0.2378681,0.2377009,0.2375123,0.2373069,0.2370982,0.2369005,0.2367257,0.2365831,0.2364855,0.2364443,0.2364586,0.2365213,0.236626,0.2367529,0.2368796,0.2370035,0.2371196,0.2372116,0.237274,0.2373017,0.2372809,0.2371987,0.2370493,0.236832,0.236544,0.2361893,0.235771,0.2352985,0.234789,0.2342496,0.2336845,0.2331086,0.2325354,0.2319753,0.2314378,0.2309214,0.2304189,0.2299236,0.2294393,0.2289692,0.2285063,0.228053,0.2276137,0.2271945,0.226801,0.2264298,0.2260833,0.2257624,0.2254675,0.2252053,0.2249889,0.2248218,0.2247035,0.2246347,0.2246233,0.2246905,0.2248585,0.2251461,0.2255634,0.2261007,0.2267314,0.2274353,0.2282089,0.2290583,0.2299984,0.2310486,0.2322209,0.2335071,0.2348852,0.2363338,0.2378435,0.2394096,0.2410126,0.2426227,0.2442015,0.2457112,0.2471362,0.2484918,0.2498009,0.2510656,0.2522707,0.2534077,0.2544732,0.2554731,0.2564403,0.2574161,0.2584114,0.2594132,0.2604001,0.2613522,0.2622662,0.2631358,0.2639222,0.2645394,0.2648743,0.264843,0.2644458,0.2637741,0.2629766,0.2621989,0.2615303,0.2610012,0.2606066,0.2603142,0.2600999,0.2599605,0.259886,0.2598641,0.2598757,0.2598836,0.2598345,0.2596703,0.2593437,0.2588507,0.2582312,0.2575499,0.2568602,0.256197,0.2555808,0.2550246,0.2545317,0.2540882,0.2536877,0.2533276,0.2529968,0.2526826,0.2523734,0.252056,0.2517244,0.2513802,0.2510301,0.2506861,0.2503532,0.2500383,0.2497506,0.249488,0.2492273,0.2489495,0.2486551,0.2483438,0.2480086,0.2476481,0.2472644,0.2468529,0.2464113,0.2459385,0.2454388,0.2449291,0.2444258,0.2439411,0.243482,0.2430522,0.242656,0.2423155,0.2420533,0.2418763,0.2417969,0.241825,0.2419585,0.2421966,0.2425456,0.2430143,0.2436251,0.2444108,0.2454219,0.2467115,0.2483168,0.2502563,0.2525388,0.2551964,0.258295,0.2619116,0.2661166,0.2709669,0.2764964,0.2826921,0.2894852,0.2968064,0.3046179,0.3128559,0.3213839,0.3300084,0.3385061,0.3466662,0.3543456,0.3614901,0.3680719,0.3740621,0.3794516,0.3842353,0.3884077,0.3919693,0.3949385,0.3973525,0.3992454,0.4006478,0.4015839,0.4020882,0.402211,0.4019961,0.4014763,0.4006845,0.3996505,0.398412,0.397012,0.3954898,0.3938734,0.3921803,0.3904366,0.3886738,0.3869061,0.3851419,0.3833905,0.3816641,0.3799648,0.3782799,0.376597,0.374921,0.3732617,0.3716196,0.370003,0.368416,0.3668685,0.3653701,0.3639232,0.3625531,0.3612725,0.3600832,0.358992,0.3580042,0.3571245,0.3563643,0.35575,0.3552989,0.3550161,0.3549047,0.354983,0.3552653,0.3557526,0.3564538,0.3573762,0.3585285,0.3599068,0.3615051,0.3633216,0.3653469,0.3675646,0.3699791,0.3725748,0.3753184,0.3781965,0.3811865,0.3842621,0.3873753,0.3904668,0.3934635,0.3962753,0.3988403,0.4011304,0.4031256,0.4048283,0.4062803,0.4075286,0.4086189,0.4095853,0.410461,0.411273,0.4120499,0.412817,0.4135786,0.4143493,0.4151421,0.415962,0.4168067,0.4176766,0.4185753,0.4194881,0.4204058,0.4213257,0.4222517,0.4231513,0.424006,0.4248227,0.4256093,0.4263387,0.4270033,0.4276063,0.4281299,0.4285752,0.4289526,0.4292737,0.4295331,0.4297547,0.429971,0.4301898,0.4304186,0.4306636,0.4309354,0.4312278,0.4315098,0.4317426,0.431872,0.4318727,0.431766,0.4315739,0.4313482,0.431136,0.4309333,0.4307206,0.4304943,0.43024,0.4299636,0.4296421,0.4292427,0.4287448,0.4281271,0.427432,0.4267012,0.4259267,0.4251064,0.4242614,0.4233788,0.4224758,0.4215631,0.4206355,0.4197081,0.4187995,0.4179099,0.4170357,0.4162028,0.4154118,0.4146289,0.4138331,0.4130281,0.4121852,0.4113,0.410404,0.4095256,0.4086939,0.4079598,0.4073684,0.4069593,0.4067597,0.4068067,0.4071536,0.4078766,0.4090059,0.410528,0.4124394,0.4147479,0.4174157,0.4203973,0.4236754,0.4271917,0.4308539,0.4345618,0.4382559,0.4419177,0.4455473,0.4491541,0.4527243,0.4562123,0.4595655,0.4627656,0.4657692,0.468508,0.4709019,0.4729539,0.4746553,0.4760765,0.4773611,0.4785625,0.4797029,0.4808461,0.4820486,0.483336,0.4847068,0.4862193,0.4879258,0.4898259,0.4917898,0.4936856,0.4955348,0.4973497,0.4990596,0.5004507,0.5012586,0.501241,0.5003492,0.4988132,0.4971028,0.4956304,0.4945567,0.4939711,0.4937914,0.4938171,0.4939823,0.4942667,0.4946285,0.4950948,0.4957127,0.4964259,0.4971573,0.4978996,0.4985663,0.498983,0.4989438,0.4983639,0.497277,0.4958668,0.4944752,0.4932769,0.4922908,0.4914658,0.4907089,0.48996,0.489191,0.488449,0.4877563,0.4871141,0.4865617,0.4861073,0.4857398,0.4854391,0.4851791,0.4849386,0.4847286,0.4846048,0.4845454,0.4845343,0.4846031,0.4847647,0.4850824,0.4856168,0.4863839,0.4872732,0.4881879,0.4892243,0.4904527,0.491847,0.4933913,0.4950123,0.4967284,0.4986062,0.5006621,0.5029107,0.5052923,0.5078316,0.5105482,0.5134287,0.5164453,0.519541,0.5226988,0.52584,0.5289602,0.5320879,0.5352754,0.5386009,0.542009,0.5453632,0.5485935,0.5516855,0.5547292,0.5577652,0.5605974,0.5631305,0.5655172,0.5678064,0.5699245,0.571882,0.5735723,0.5750006,0.5762983,0.5773828,0.5781605,0.578611,0.5787728,0.5787824,0.5786358,0.5782413
355,92.3799973,10.7799997,89.2200012,39.5900002,31.0900002,27.0400009,77.1299973,201.9400024,32.9300003,42.8499985,3.8299999,16.7299995,16.3199997,1.0047196,1.0091609,1.0129249,1.0161115,1.0186793,1.0207306,1.0224887,1.0240749,1.0254682,1.0266857,1.0277923,1.0287268,1.0293311,1.0294955,1.029231,1.0286552,1.0279052,1.0270147,1.0259595,1.0247418,1.0234143,1.0221351,1.0209725,1.0197892,1.0184568,1.0168948,1.0150915,1.0130577,1.0107551,1.0080904,1.0049865,1.0014733,0.9975552,0.9933079,0.9888691,0.9843501,0.9798061,0.9752687,0.9706942,0.9661191,0.9615705,0.9570912,0.9526716,0.9482486,0.9437038,0.939014,0.9341766,0.9292043,0.9241076,0.9189196,0.913591,0.9081177,0.9024909,0.8967033,0.8907158,0.8844609,0.8778925,0.8709634,0.8637142,0.856233,0.8486691,0.8412256,0.8341473,0.8276821,0.8220487,0.8174009,0.813798,0.8111638,0.8092895,0.80785,0.8064538,0.8046932,0.8022283,0.7988419,0.7944736,0.7892194,0.7833087,0.7770469,0.7707432,0.7646382,0.7588636,0.7534299,0.7482693,0.7432728,0.7383223,0.7333113,0.7281839,0.7229311,0.7175902,0.7122442,0.7070413,0.702152,0.697742,0.6940237,0.6911846,0.6893765,0.6887637,0.6894594,0.6914933,0.6948319,0.6993478,0.7047719,0.7107375,0.7167995,0.7224888,0.7273536,0.7310092,0.7331942,0.7337967,0.7328604,0.7305676,0.7271891,0.7230667,0.7185857,0.7141252,0.7100609,0.7067276,0.7044173,0.7033952,0.7039034,0.7061552,0.7103445,0.7166306,0.7251368,0.7359232,0.748974,0.7641723,0.7812906,0.7999674,0.8196949,0.8398272,0.8595827,0.8780692,0.8942886,0.9072039,0.9158428,0.919427,0.9175211,0.9101098,0.8976565,0.8810353,0.8613975,0.8399914,0.8179908,0.7963871,0.7759233,0.7570716,0.7400577,0.7249095,0.7114853,0.6995189,0.6886565,0.678492,0.6686085,0.6586028,0.6481193,0.6368688,0.6246435,0.6113305,0.5968902,0.5813715,0.564906,0.5476915,0.5299799,0.5120478,0.4941842,0.4766664,0.4597379,0.4435889,0.4283573,0.4141254,0.4009171,0.3887168,0.3774736,0.3671104,0.3575313,0.3486347,0.3403283,0.3325242,0.3251462,0.3181228,0.3113995,0.3049407,0.2987211,0.2927358,0.2869931,0.2815035,0.2762755,0.2713106,0.2666054,0.262148,0.2579241,0.2539202,0.250119,0.2464977,0.2430339,0.2397061,0.2365007,0.2334077,0.2304172,0.2275169,0.2246936,0.2219446,0.2192725,0.2166874,0.2142,0.2118138,0.2095278,0.2073385,0.2052369,0.203213,0.2012565,0.1993597,0.1975148,0.1957201,0.1939752,0.1922774,0.1906252,0.1890089,0.1874334,0.1858996,0.1844038,0.1829439,0.1815205,0.1801322,0.1787774,0.1774568,0.176165,0.1749034,0.1736759,0.1724782,0.1713047,0.1701476,0.1690168,0.1679118,0.1668398,0.1657969,0.1647692,0.1637574,0.1627692,0.1618052,0.1608676,0.1599524,0.1590593,0.1581883,0.157338,0.1565106,0.1557032,0.1549145,0.1541431,0.1533887,0.1526521,0.151934,0.1512293,0.1505316,0.1498368,0.149142,0.1484457,0.1477511,0.1470575,0.1463642,0.145671,0.1449808,0.1442936,0.1436072,0.142923,0.1422426,0.1415675,0.1408974,0.140234,0.139583,0.1389499,0.1383352,0.1377392,0.1371657,0.1366182,0.1360981,0.1356033,0.135133,0.1346825,0.1342545,0.1338501,0.1334674,0.1331069,0.132765,0.1324391,0.1321243,0.131818,0.1315154,0.131212,0.130911,0.1306074,0.1302998,0.1299869,0.1296687,0.1293467,0.1290237,0.1286961,0.1283685,0.1280418,0.1277167,0.1273955,0.1270778,0.1267643,0.1264524,0.1261426,0.125833,0.125522,0.125207,0.1248885,0.1245639,0.1242366,0.1239079,0.1235791,0.1232511,0.1229243,0.1226006,0.1222797,0.1219589,0.1216411,0.1213263,0.1210173,0.1207117,0.1204119,0.1201193,0.1198296,0.1195411,0.1192535,0.1189686,0.1186849,0.1184009,0.1181167,0.1178321,0.1175485,0.1172691,0.1169961,0.1167288,0.1164641,0.1162049,0.1159517,0.1157016,0.115457,0.1152147,0.114986,0.1147665,0.1145451,0.114307,0.1140445,0.1137642,0.1134778,0.1131502,0.1129843,0.112827,0.112685,0.1125677,0.1124689,0.1123776,0.1123006,0.1122587,0.1122515,0.1122676,0.1123082,0.112381,0.1124961,0.1126697,0.112907,0.1131984,0.1135374,0.113914,0.1143138,0.1147313,0.1151687,0.1156346,0.1161355,0.1166668,0.1172318,0.1178419,0.1185044,0.1192155,0.119964,0.1207381,0.1215179,0.1222738,0.1229845,0.1236532,0.124288,0.1248906,0.1254745,0.1260654,0.1266772,0.1272971,0.1278995,0.1284557,0.1289355,0.1293176,0.1295926,0.1297654,0.1298547,0.1298782,0.1298575,0.1298095,0.1297378,0.1296359,0.1294957,0.1293082,0.1290553,0.1287263,0.1283213,0.1278415,0.1272921,0.1266818,0.1260309,0.125366,0.1247138,0.1240931,0.1235089,0.1229596,0.1224415,0.1219503,0.1214914,0.1210645,0.1206598,0.1202807,0.1199344,0.119616,0.1193197,0.1190474,0.1188069,0.1186079,0.1184481,0.1183155,0.1182053,0.1181135,0.1180331,0.1179606,0.1178915,0.1178139,0.1177207,0.1176082,0.1174758,0.1173186,0.1171398,0.1169534,0.1167737,0.1166072,0.1164481,0.1162966,0.1161616,0.1160489,0.1159597,0.1158918,0.115849,0.115833,0.1158448,0.1158889,0.1159658,0.1160756,0.1162175,0.1163929,0.1166085,0.1168666,0.1171721,0.1175325,0.1179509,0.1184285,0.118961,0.1195517,0.1202039,0.1209241,0.1217241,0.1226015,0.1235489,0.1245602,0.1256253,0.1267302,0.1278594,0.1290019,0.130153,0.1313106,0.1324669,0.1336078,0.1347209,0.1358041,0.1368514,0.1378483,0.1387862,0.1396676,0.1405129,0.1413605,0.1422545,0.1432367,0.1443379,0.145574,0.1469476,0.1484538,0.1500848,0.151833,0.1537005,0.1557144,0.1579107,0.160312,0.1629331,0.1657762,0.168825,0.1720483,0.1754003,0.1788322,0.1822996,0.1857648,0.1891993,0.1925801,0.1958765,0.1990528,0.2020761,0.204921,0.2075673,0.2100045,0.2122283,0.2142438,0.2160688,0.2177192,0.2192117,0.2205614,0.2217822,0.2228933,0.223919,0.224883,0.225801,0.2266796,0.2275148,0.2283003,0.2290366,0.2297249,0.2303597,0.2309329,0.2314424,0.231894,0.2322976,0.2326648,0.2330115,0.2333499,0.2336789,0.2339918,0.2342812,0.2345396,0.2347591,0.2349274,0.2350428,0.2351044,0.2351032,0.2350326,0.2348893,0.2346766,0.2344052,0.2340835,0.2337172,0.2333166,0.2328968,0.2324743,0.2320532,0.2316354,0.2312337,0.2308605,0.2305207,0.2302161,0.2299523,0.2297309,0.2295446,0.2293874,0.2292537,0.2291274,0.2289907,0.2288345,0.2286641,0.228497,0.2283455,0.2282157,0.2281136,0.2280533,0.2280509,0.2281079,0.2282137,0.2283596,0.2285258,0.2286918,0.2288535,0.2290041,0.2291306,0.2292283,0.229288,0.2292971,0.2292511,0.229148,0.2289797,0.2287356,0.228424,0.2280552,0.2276381,0.2271832,0.2266925,0.2261712,0.2256402,0.2251177,0.2246107,0.2241208,0.2236459,0.2231811,0.2227222,0.2222753,0.2218405,0.2214075,0.2209777,0.2205552,0.2201504,0.2197711,0.219411,0.219074,0.2187654,0.218487,0.2182467,0.2180546,0.2179095,0.2178097,0.2177588,0.2177703,0.2178646,0.2180578,0.2183639,0.2187918,0.2193345,0.219969,0.2206758,0.2214535,0.2223134,0.22327,0.2243327,0.2255052,0.2267813,0.2281439,0.2295718,0.2310591,0.2326054,0.2341913,0.2357869,0.237351,0.2388431,0.2402522,0.2415984,0.2429,0.2441523,0.2453408,0.2464598,0.2475065,0.2484883,0.2494381,0.2503952,0.2513686,0.2523441,0.2532994,0.2542111,0.2550735,0.25588,0.2565953,0.2571449,0.2574265,0.2573614,0.2569527,0.2562891,0.2555151,0.2547705,0.2541345,0.2536279,0.2532461,0.2529627,0.2527545,0.2526156,0.2525382,0.2525108,0.2525131,0.2525095,0.2524491,0.2522785,0.2519529,0.2514653,0.2508569,0.2501941,0.2495292,0.2488916,0.2482956,0.2477571,0.2472852,0.2468659,0.2464882,0.2461458,0.2458259,0.2455164,0.2452101,0.2448983,0.2445779,0.2442501,0.2439163,0.243585,0.2432617,0.2429539,0.2426658,0.2423931,0.2421238,0.2418479,0.24156,0.241252,0.24092,0.2405658,0.2401865,0.2397739,0.2393311,0.2388595,0.2383629,0.2378557,0.2373501,0.2368642,0.2364136,0.2360014,0.2356277,0.2353101,0.2350707,0.2349153,0.2348477,0.2348738,0.2349964,0.2352231,0.2355648,0.2360264,0.2366236,0.2373856,0.238362,0.2396078,0.2411628,0.2430453,0.2452618,0.2478418,0.2508479,0.2543544,0.2584334,0.2631389,0.268492,0.2744772,0.2810391,0.2881122,0.2956496,0.3035924,0.3118212,0.3201487,0.3283508,0.3362288,0.3436526,0.3505711,0.3569593,0.3627882,0.3680443,0.3727183,0.3768002,0.3802919,0.3832162,0.3856108,0.3875065,0.3889311,0.3899099,0.3904688,0.3906423,0.3904735,0.3900056,0.3892767,0.3883163,0.3871612,0.3858473,0.3844025,0.3828572,0.3812432,0.379591,0.3779264,0.3762562,0.3745867,0.3729293,0.3712977,0.3696982,0.3681222,0.3665522,0.3649803,0.3634104,0.3618442,0.3602904,0.3587551,0.3572502,0.3557845,0.3543581,0.3529961,0.3517126,0.3505068,0.3493859,0.3483638,0.3474549,0.3466695,0.3460282,0.3455482,0.3452374,0.3450994,0.3451484,0.3453963,0.3458481,0.3465155,0.3474018,0.3485153,0.3498604,0.3514334,0.3532225,0.3552151,0.3573992,0.3597812,0.3623498,0.3650773,0.3679521,0.370949,0.3740371,0.3771655,0.3802752,0.3832896,0.3861146,0.3886917,0.390999,0.3930214,0.3947661,0.3962701,0.3975688,0.3987071,0.3997281,0.4006681,0.401551,0.4024042,0.4032494,0.4040783,0.4048949,0.4057188,0.4065674,0.407442,0.4083425,0.4092773,0.4102293,0.4111735,0.4121017,0.4130253,0.4139206,0.4147682,0.4155619,0.4163058,0.4169896,0.4176219,0.4182063,0.4187241,0.4191752,0.4195595,0.4198774,0.4201207,0.4203204,0.420515,0.420718,0.4209383,0.4211728,0.4214329,0.4217202,0.4219995,0.4222246,0.4223454,0.4223425,0.422233,0.4220369,0.4218121,0.4216052,0.4214087,0.4212124,0.4210172,0.4208028,0.4205686,0.4202842,0.4199189,0.419462,0.4188906,0.4182348,0.4175294,0.4167719,0.415971,0.4151517,0.414297,0.4134195,0.4125268,0.4116127,0.4106919,0.4097891,0.4089197,0.4080809,0.407283,0.406521,0.4057645,0.4049906,0.404206,0.4033909,0.4025444,0.4017007,0.4008899,0.4001341,0.3994715,0.3989419,0.3985926,0.3984642,0.3985963,0.3990308,0.3998299,0.4010161,0.4025776,0.4045131,0.406831,0.409493,0.4124539,0.4156937,0.4191414,0.4227076,0.4263211,0.4299355,0.4335068,0.4370069,0.4404494,0.4438511,0.4471958,0.4504273,0.4535036,0.4563839,0.4590338,0.4613843,0.4634091,0.4650872,0.4665046,0.4678077,0.4690512,0.4702635,0.4714965,0.4727821,0.4741353,0.4755504,0.4770778,0.478775,0.4806585,0.4826099,0.4844935,0.4863067,0.4880374,0.4896308,0.490915,0.4916457,0.491582,0.490689,0.4892032,0.4875637,0.4861453,0.4850869,0.4844768,0.484261,0.4842707,0.4844423,0.4847351,0.4850891,0.4855278,0.4861097,0.4867907,0.4874859,0.4881763,0.4887872,0.4891511,0.4890549,0.4884342,0.4873571,0.4859997,0.4846616,0.4835016,0.4825612,0.4817853,0.4810453,0.4802655,0.479431,0.478617,0.4778809,0.4772406,0.4767088,0.4762505,0.4758635,0.4755831,0.4753997,0.4752364,0.475024,0.4748131,0.474654,0.4745694,0.4745836,0.4747151,0.4750141,0.4754885,0.4761377,0.4769103,0.4777729,0.4788113,0.4800343,0.4813757,0.4828538,0.4844591,0.4861939,0.4880541,0.4900377,0.4921754,0.4944068,0.496764,0.4993002,0.5020408,0.5049495,0.5079302,0.5109764,0.5140299,0.5170594,0.5200818,0.5231624,0.5263281,0.5294751,0.5325663,0.5356845,0.5388188,0.5419226,0.5449128,0.5475942,0.5499681,0.5522163,0.5543113,0.5561748,0.557919,0.5594982,0.5608735,0.5621157,0.5631548,0.5639411,0.5644267,0.5645481,0.564419,0.5641916,0.5638583
356,92.6999969,11.4300003,88.5699997,38,31.9699993,26.1000004,79.3499985,192.5500031,32.1699982,40.5800018,4.1199999,16.9200001,16.7099991,1.0228424,1.0275731,1.0316294,1.0351752,1.038268,1.0409578,1.0432531,1.0451549,1.0467948,1.0483701,1.0498856,1.0511523,1.0520647,1.0526782,1.0530788,1.0532609,1.0531508,1.0527055,1.0519844,1.0510623,1.0499686,1.0488141,1.047701,1.046599,1.0454283,1.0440549,1.0423986,1.0404272,1.0380946,1.0353625,1.0322254,1.028736,1.0248754,1.0206585,1.0161488,1.0114361,1.006609,1.0017236,0.9967339,0.991675,0.9865803,0.9814947,0.97641,0.9712833,0.9660435,0.9607166,0.9553303,0.9499145,0.9444808,0.9390507,0.9335802,0.9280937,0.9226074,0.9171223,0.911588,0.9059181,0.9000673,0.8940085,0.8877813,0.8814291,0.8750255,0.8686902,0.8625907,0.8569053,0.8517874,0.847344,0.8436243,0.8405916,0.8381273,0.8360333,0.8340548,0.8319085,0.8293468,0.8261888,0.8223481,0.8178478,0.8128216,0.8074778,0.802048,0.7967259,0.7916375,0.7868233,0.7822553,0.7778543,0.7735174,0.7691444,0.7646804,0.7601037,0.7554174,0.750656,0.7459164,0.7413193,0.736986,0.7330918,0.7297974,0.7272366,0.7255631,0.7248929,0.7252825,0.7267514,0.7292482,0.7326026,0.7365646,0.7408091,0.7449749,0.7486939,0.751632,0.7535412,0.7542846,0.7538455,0.7523196,0.7498785,0.7467623,0.7432612,0.7396694,0.7362865,0.7333875,0.7312239,0.7300317,0.7300295,0.7314181,0.7343941,0.7391319,0.7457745,0.7544078,0.7650535,0.7776501,0.7920424,0.8079544,0.8249734,0.8425531,0.8600158,0.8765804,0.8913634,0.9034339,0.9119006,0.9160243,0.9153593,0.9098313,0.899803,0.8860211,0.8695047,0.8513824,0.8327292,0.8144591,0.7972603,0.7815711,0.7675983,0.7553617,0.7447262,0.7354493,0.7272139,0.7196582,0.712409,0.7050958,0.6973772,0.6889575,0.679603,0.6691621,0.6575463,0.6447445,0.6308162,0.615881,0.6001114,0.5837074,0.5668906,0.549893,0.5329425,0.5162446,0.4999794,0.4842939,0.4692898,0.4550335,0.4415561,0.4288556,0.4169012,0.4056429,0.3950269,0.3849927,0.3754829,0.3664364,0.3578006,0.3495359,0.3416114,0.3340179,0.3267615,0.3198504,0.3132887,0.3070722,0.3011924,0.2956342,0.2903812,0.2854161,0.2807167,0.2762549,0.2720037,0.2679374,0.2640389,0.2602948,0.2566923,0.2532149,0.2498432,0.2465688,0.2433914,0.2403206,0.2373668,0.2345322,0.2318137,0.2292054,0.2266962,0.2242749,0.2219308,0.2196554,0.2174402,0.2152833,0.2131835,0.2111368,0.2091413,0.2071873,0.2052794,0.2034177,0.2015975,0.1998161,0.1980751,0.1963732,0.1947085,0.1930812,0.1914854,0.189922,0.1883941,0.1868977,0.1854269,0.1839744,0.18255,0.1811529,0.1797902,0.1784576,0.1771405,0.1758399,0.1745643,0.1733146,0.172093,0.1708953,0.169721,0.1685704,0.1674425,0.1663397,0.1652591,0.1641992,0.1631593,0.1621402,0.1611436,0.1601708,0.159217,0.1582756,0.1573427,0.1564164,0.1554953,0.1545811,0.1536725,0.1527688,0.1518704,0.1509797,0.1500957,0.1492153,0.1483396,0.1474706,0.1466095,0.1457557,0.1449106,0.1440792,0.1432669,0.1424748,0.1417031,0.1409556,0.1402349,0.139542,0.1388747,0.1382319,0.1376091,0.1370085,0.1364307,0.1358735,0.1353372,0.1348184,0.1343147,0.1338224,0.1333396,0.1328619,0.1323853,0.1319133,0.1314414,0.1309687,0.1304942,0.1300181,0.1295415,0.1290669,0.1285903,0.1281165,0.1276461,0.1271795,0.1267183,0.1262619,0.1258115,0.1253648,0.1249229,0.1244836,0.1240454,0.1236052,0.1231637,0.1227181,0.1222715,0.1218255,0.1213813,0.1209404,0.1205031,0.1200712,0.1196444,0.1192192,0.1187979,0.1183803,0.1179701,0.1175654,0.117169,0.1167824,0.1164005,0.1160209,0.1156437,0.1152714,0.1149027,0.1145353,0.1141692,0.1138044,0.1134429,0.1130879,0.1127407,0.1124005,0.1120653,0.1117397,0.1114241,0.1111157,0.1108168,0.1105243,0.1102475,0.109979,0.1097062,0.1094152,0.1090966,0.1087544,0.1084017,0.1081069,0.1078771,0.107667,0.1074829,0.1073295,0.107193,0.1070604,0.1069386,0.1068512,0.1068032,0.1067846,0.1067974,0.1068496,0.1069462,0.1070988,0.1073133,0.1075796,0.1078904,0.1082405,0.1086174,0.1090126,0.1094266,0.1098681,0.1103443,0.1108523,0.1113956,0.111984,0.1126217,0.1133017,0.114013,0.1147462,0.1154851,0.1162039,0.1168823,0.1175229,0.1181334,0.1187162,0.1192835,0.1198595,0.1204611,0.1210775,0.1216779,0.1222317,0.1227133,0.123102,0.1233864,0.1235745,0.1236878,0.123742,0.1237543,0.1237388,0.1237022,0.1236426,0.1235481,0.1234037,0.1231904,0.1228992,0.1225295,0.12208,0.1215545,0.1209618,0.1203194,0.1196512,0.1189848,0.1183415,0.1177319,0.1171619,0.1166282,0.1161221,0.1156475,0.1152043,0.1147841,0.114392,0.1140326,0.1137016,0.1133946,0.1131089,0.1128496,0.1126296,0.1124493,0.1122974,0.112169,0.112059,0.1119589,0.1118653,0.1117743,0.1116758,0.1115623,0.1114292,0.1112771,0.1111015,0.110906,0.1107052,0.1105106,0.1103272,0.110156,0.1100019,0.1098678,0.109754,0.1096647,0.1096001,0.1095618,0.1095521,0.1095747,0.109635,0.1097339,0.1098697,0.1100399,0.1102443,0.110487,0.1107729,0.11111,0.1115048,0.1119603,0.1124768,0.1130473,0.1136757,0.1143638,0.1151144,0.1159393,0.1168396,0.1178088,0.1188392,0.1199176,0.1210301,0.1221635,0.1233068,0.1244576,0.1256159,0.1267745,0.1279215,0.1290442,0.1301381,0.1311951,0.1322004,0.1331476,0.1340416,0.1349063,0.1357857,0.1367261,0.137768,0.1389445,0.1402788,0.1417782,0.1434366,0.1452439,0.1471878,0.1492611,0.1514811,0.1538765,0.1564668,0.1592668,0.1622747,0.1654654,0.1688037,0.1722464,0.17575,0.1792732,0.1827772,0.1862295,0.1896055,0.1928761,0.1960092,0.1989773,0.2017583,0.2043329,0.2066969,0.2088584,0.2108283,0.2126171,0.2142337,0.2156971,0.2170269,0.2182378,0.2193518,0.220395,0.2213867,0.2223375,0.223253,0.2241317,0.2249682,0.2257567,0.2264914,0.2271659,0.2277745,0.2283168,0.228797,0.2292209,0.2295972,0.2299388,0.2302565,0.2305528,0.2308248,0.2310649,0.231266,0.2314243,0.2315328,0.2315872,0.2315786,0.2314962,0.2313407,0.2311161,0.2308279,0.2304846,0.2300934,0.2296587,0.2291861,0.2286875,0.2281842,0.2276871,0.2271967,0.2267242,0.2262829,0.2258767,0.2255069,0.2251757,0.2248795,0.2246118,0.2243702,0.2241506,0.2239386,0.2237201,0.2234909,0.2232557,0.2230251,0.2228073,0.2226064,0.2224295,0.2222961,0.2222193,0.2221941,0.2222107,0.2222654,0.2223423,0.2224204,0.2224955,0.2225643,0.2226161,0.2226457,0.2226438,0.2225962,0.2224945,0.2223362,0.222115,0.2218199,0.221459,0.221044,0.2205842,0.2200885,0.2195572,0.2189938,0.218417,0.2178423,0.2172791,0.2167363,0.2162155,0.2157129,0.2152212,0.2147416,0.2142762,0.2138175,0.2133663,0.2129247,0.2124971,0.2120875,0.2116942,0.211326,0.2109897,0.2106893,0.2104325,0.2102301,0.2100834,0.2099899,0.2099487,0.2099683,0.2100648,0.2102528,0.2105462,0.2109516,0.2114578,0.2120396,0.2126838,0.2133955,0.2141857,0.2150687,0.2160511,0.2171311,0.2183002,0.2195443,0.2208504,0.222218,0.2236489,0.2251249,0.226611,0.2280623,0.2294386,0.2307267,0.2319474,0.2331252,0.2342604,0.2353397,0.236357,0.2373089,0.2382044,0.2390804,0.2399801,0.240918,0.2418863,0.242866,0.2438368,0.2447944,0.2457285,0.2465959,0.2473046,0.2477293,0.247769,0.2474139,0.2467602,0.2459745,0.2452204,0.2445926,0.2441117,0.2437659,0.243524,0.2433616,0.2432794,0.2432725,0.2433246,0.2434118,0.2434985,0.2435334,0.2434545,0.243206,0.2427776,0.2422097,0.2415705,0.2409211,0.2403019,0.2397288,0.2392114,0.2387546,0.2383436,0.2379646,0.2376109,0.237275,0.2369523,0.2366386,0.2363235,0.2359999,0.2356656,0.2353221,0.2349805,0.2346504,0.2343404,0.2340555,0.2337918,0.2335302,0.2332561,0.2329668,0.2326571,0.232324,0.2319689,0.2315908,0.2311857,0.2307546,0.2302972,0.2298204,0.2293383,0.2288577,0.2283908,0.2279542,0.2275531,0.227185,0.2268718,0.2266437,0.2265101,0.2264775,0.2265536,0.2267421,0.2270538,0.2274981,0.2280755,0.2288051,0.2297298,0.2309136,0.2324128,0.2342599,0.2364684,0.2390469,0.2420338,0.2454983,0.2495153,0.254152,0.2594574,0.2654485,0.2720964,0.2793213,0.2870407,0.2952046,0.3037493,0.3125441,0.3213945,0.3300704,0.3383657,0.3461559,0.3534018,0.3600836,0.3661791,0.3716783,0.3765743,0.3808685,0.3845627,0.3876677,0.3902206,0.3922583,0.3938079,0.3948878,0.3955237,0.3957596,0.3956403,0.3952011,0.39447,0.3934755,0.3922632,0.3908757,0.3893438,0.3876934,0.385948,0.3841379,0.382294,0.3804313,0.3785584,0.3766807,0.3748062,0.3729424,0.3710884,0.3692368,0.3673938,0.365573,0.3637705,0.361985,0.3602181,0.3584825,0.3567934,0.3551562,0.3535886,0.3520959,0.3506804,0.3493532,0.3481185,0.3469799,0.3459514,0.3450624,0.3443327,0.3437676,0.3433662,0.3431382,0.3430912,0.3432291,0.3435682,0.3441224,0.3449016,0.3458962,0.3470962,0.3485013,0.3501054,0.3518922,0.353863,0.356003,0.35829,0.3607208,0.3632686,0.3659011,0.3685741,0.3712433,0.3738482,0.3763037,0.3785547,0.3805801,0.3823611,0.383898,0.385228,0.3863901,0.3874248,0.388359,0.3892171,0.3900238,0.3908077,0.391584,0.3923348,0.3930636,0.3937935,0.3945373,0.395291,0.3960567,0.3968484,0.3976608,0.3984772,0.3992814,0.4000825,0.400864,0.401607,0.4023034,0.4029564,0.4035499,0.4040825,0.4045555,0.404953,0.4052788,0.4055389,0.4057391,0.4058735,0.4059709,0.4060677,0.4061762,0.4063067,0.4064598,0.4066415,0.4068407,0.4070176,0.4071399,0.4071802,0.4071259,0.4069797,0.4067486,0.4064922,0.4062612,0.4060384,0.4057944,0.4055333,0.4052519,0.4049546,0.4046132,0.4042021,0.4037056,0.4030897,0.4023842,0.4016331,0.400838,0.4000004,0.3991351,0.3982185,0.3972629,0.3962817,0.3952752,0.3942626,0.3932689,0.3923014,0.3913475,0.3904154,0.3895102,0.3886196,0.3877337,0.3868583,0.3859673,0.385059,0.3841634,0.3832957,0.3824762,0.3817592,0.3811852,0.3807792,0.3805626,0.3805729,0.3808632,0.3815096,0.3825369,0.3839245,0.3856686,0.3877898,0.3902636,0.3930536,0.3961529,0.3995062,0.4030143,0.4065787,0.4101462,0.4136875,0.4171895,0.4206648,0.4241169,0.4275136,0.4307934,0.4339187,0.4368447,0.4395221,0.4418792,0.443907,0.4455883,0.4469868,0.4482298,0.4493793,0.450488,0.4516268,0.452846,0.4541715,0.4556052,0.4572188,0.4590718,0.4611412,0.4632726,0.4653409,0.4673772,0.4693983,0.4713545,0.4730383,0.4741304,0.4742891,0.4734156,0.4717852,0.4699456,0.4683527,0.4671756,0.4665018,0.4662581,0.4662592,0.466439,0.4667601,0.4671574,0.4676388,0.4682577,0.4689776,0.469724,0.4705015,0.4712551,0.4717965,0.4718578,0.4713264,0.4702593,0.4688626,0.4674768,0.4662847,0.4653337,0.4645854,0.4639338,0.4632849,0.4625757,0.461865,0.461232,0.4607166,0.4603339,0.4600418,0.4598295,0.4597164,0.4596956,0.4597244,0.4597468,0.4597585,0.4597515,0.4597848,0.4599608,0.4602994,0.4607999,0.4614616,0.462306,0.4632612,0.4642465,0.4653472,0.4666105,0.468008,0.4695666,0.4712561,0.473075,0.4750274,0.4770944,0.4793019,0.4816189,0.4840856,0.4867253,0.4895278,0.4924638,0.4954742,0.4985422,0.5015962,0.5046166,0.5075827,0.5105361,0.5135843,0.5166876,0.5197803,0.5228885,0.5259857,0.5290579,0.5320574,0.5347658,0.5371234,0.5393176,0.5413974,0.5433217,0.5451554,0.5467649,0.5480916,0.5492699,0.5502659,0.5510208,0.5515053,0.5516948,0.5516765,0.5514922,0.5510861
357,92.3199997,12.2200003,87.7799988,38.7099991,32.1500015,26.2700005,78.0199966,192.3399963,31.8400002,40.8800011,4.0799999,16.7099991,16.5799999,1.0100425,1.0144318,1.017946,1.0207256,1.0229061,1.0246747,1.0261718,1.0274584,1.0286043,1.0297149,1.0307993,1.031689,1.0322047,1.0323091,1.0321069,1.0317363,1.0312381,1.0305129,1.0294945,1.028228,1.0267719,1.0252321,1.0236588,1.0219625,1.0200781,1.0179557,1.0155759,1.0129335,1.0100018,1.0067246,1.0030533,0.9990407,0.9947251,0.9901884,0.9855244,0.9808165,0.9761512,0.9716027,0.967122,0.962697,0.9583135,0.9540081,0.9497855,0.9456056,0.9413902,0.9371575,0.9329211,0.9286847,0.9244437,0.920223,0.915979,0.9117214,0.9074479,0.903142,0.8987447,0.894173,0.889384,0.8843412,0.879073,0.8736153,0.8680332,0.8624335,0.8569716,0.8518178,0.8471188,0.8429762,0.8394382,0.8364725,0.8339702,0.8317528,0.8295937,0.8272368,0.8244547,0.8210873,0.8170729,0.8124521,0.8073583,0.8019863,0.7965469,0.7912114,0.786082,0.7811769,0.776453,0.7718256,0.7671957,0.7624709,0.757606,0.7525928,0.747451,0.7422279,0.7370254,0.7319686,0.7271868,0.7228622,0.7191567,0.7162032,0.7141555,0.7131246,0.7131518,0.7142345,0.7163029,0.7191741,0.7225866,0.7262043,0.7296591,0.7325841,0.734657,0.7356529,0.7354618,0.7340893,0.7316447,0.7283072,0.7243193,0.7199674,0.7155359,0.7113157,0.7075735,0.7045486,0.7024662,0.7015429,0.70199,0.7040305,0.7078816,0.713735,0.7217153,0.7318602,0.7440956,0.7582282,0.7739264,0.7907107,0.8079733,0.8249925,0.8409714,0.8550454,0.8663379,0.8740385,0.8775062,0.8763968,0.8707216,0.8608996,0.8476995,0.8321324,0.8152974,0.7982238,0.7817667,0.7665449,0.7529209,0.7410238,0.7307977,0.722036,0.7144312,0.7076101,0.7011645,0.6946885,0.6877983,0.68016,0.6715038,0.6616362,0.6504544,0.6379222,0.6240832,0.6090536,0.5930108,0.5761846,0.5588311,0.5412248,0.523641,0.5063369,0.4895316,0.4734036,0.4580839,0.443648,0.4301301,0.4175249,0.4057945,0.394877,0.3846998,0.3751952,0.3662932,0.3579268,0.3500273,0.3425383,0.3354174,0.3286288,0.3221564,0.315996,0.3101436,0.3045916,0.2993279,0.2943407,0.2896135,0.2851281,0.2808664,0.2768072,0.2729256,0.2691993,0.2656089,0.262143,0.2587936,0.2555513,0.2524024,0.2493315,0.2463347,0.2434151,0.2405836,0.2378505,0.2352185,0.2326875,0.2302547,0.2279111,0.2256458,0.2234472,0.2213068,0.2192171,0.2171772,0.2151871,0.2132428,0.211343,0.209479,0.2076557,0.2058729,0.2041263,0.2024142,0.2007385,0.1990979,0.1974903,0.1959161,0.1943693,0.1928519,0.1913676,0.1899125,0.1884815,0.1870674,0.1856797,0.1843167,0.1829855,0.1816827,0.180394,0.17912,0.1778691,0.1766426,0.1754429,0.1742655,0.1731097,0.1719758,0.1708627,0.169773,0.1687037,0.1676538,0.1666223,0.1656095,0.1646178,0.1636499,0.1627012,0.1617647,0.1608364,0.1599148,0.1589993,0.1580932,0.1571957,0.1563063,0.1554251,0.1545542,0.1536935,0.1528405,0.1519966,0.1511627,0.15034,0.1495276,0.1487265,0.147941,0.1471761,0.1464326,0.1457103,0.1450125,0.1443416,0.143698,0.1430791,0.1424843,0.1419088,0.1413548,0.1408226,0.1403102,0.1398178,0.1393421,0.1388807,0.1384297,0.1379869,0.137548,0.1371088,0.1366728,0.1362351,0.1357949,0.1353512,0.1349044,0.1344556,0.1340076,0.1335563,0.1331063,0.1326589,0.1322147,0.1317758,0.1313412,0.1309119,0.1304859,0.1300645,0.1296453,0.1292263,0.1288043,0.1283799,0.1279506,0.1275204,0.1270906,0.1266623,0.1262366,0.1258139,0.1253958,0.1249823,0.1245705,0.1241628,0.1237586,0.1233611,0.1229686,0.1225837,0.1222077,0.1218358,0.1214664,0.1210999,0.1207387,0.120381,0.1200236,0.119666,0.1193085,0.1189537,0.1186053,0.118265,0.1179316,0.1176024,0.1172813,0.1169703,0.1166684,0.116379,0.1160988,0.1158358,0.115581,0.1153194,0.1150348,0.1147174,0.114372,0.1140137,0.1136595,0.1134284,0.113215,0.113028,0.1128769,0.1127509,0.1126282,0.1125085,0.1124194,0.1123706,0.1123538,0.1123705,0.1124267,0.1125297,0.112693,0.1129192,0.1131996,0.1135313,0.1139074,0.1143125,0.114737,0.1151822,0.1156596,0.1161758,0.1167241,0.1173047,0.1179283,0.1186075,0.1193413,0.120111,0.1208985,0.1216843,0.122443,0.1231606,0.1238435,0.124497,0.1251209,0.1257245,0.126332,0.1269619,0.127602,0.1282231,0.1287977,0.1292994,0.1297066,0.1300049,0.1301984,0.1303096,0.1303554,0.1303541,0.1303214,0.1302616,0.130173,0.1300516,0.1298839,0.1296466,0.1293281,0.1289274,0.1284428,0.1278765,0.1272402,0.1265606,0.1258641,0.1251738,0.1245077,0.1238742,0.1232791,0.122723,0.1221967,0.1217011,0.1212369,0.1207984,0.1203921,0.1200215,0.1196789,0.1193598,0.1190639,0.118797,0.1185706,0.1183864,0.1182352,0.118109,0.1179981,0.1178933,0.117793,0.117696,0.1175923,0.1174697,0.117323,0.1171582,0.116974,0.1167723,0.1165634,0.116359,0.1161679,0.11599,0.1158295,0.1156929,0.1155791,0.1154875,0.115419,0.115378,0.1153663,0.1153856,0.1154396,0.1155304,0.11566,0.1158289,0.1160375,0.1162892,0.1165892,0.1169441,0.1173554,0.1178248,0.1183591,0.1189542,0.1196133,0.1203385,0.1211318,0.122003,0.1229525,0.1239748,0.1250624,0.1261999,0.1273713,0.1285636,0.1297658,0.1309744,0.1321905,0.1334085,0.1346154,0.1357971,0.1369489,0.1380639,0.1391269,0.1401313,0.1410806,0.1419954,0.1429203,0.1439073,0.1450023,0.1462405,0.1476431,0.1492156,0.1509508,0.1528378,0.1548687,0.1570428,0.1593796,0.1619097,0.1646496,0.1676086,0.1707847,0.174155,0.1776846,0.1813301,0.1850437,0.1887799,0.1924969,0.1961615,0.1997488,0.2032297,0.2065734,0.2097505,0.2127342,0.2155068,0.2180616,0.2203969,0.2225174,0.2244383,0.2261773,0.2277537,0.229184,0.2304872,0.2316874,0.2328055,0.2338586,0.2348588,0.2358161,0.2367338,0.2376057,0.2384249,0.2391889,0.2398947,0.2405346,0.2411008,0.2415955,0.2420293,0.2424119,0.2427549,0.2430722,0.2433684,0.2436409,0.2438821,0.2440851,0.2442431,0.2443468,0.2443944,0.2443795,0.2442939,0.2441398,0.2439162,0.2436229,0.2432699,0.2428698,0.2424307,0.2419576,0.2414617,0.2409642,0.2404743,0.2399941,0.2395325,0.2390981,0.2386968,0.2383341,0.2380159,0.2377404,0.2374987,0.2372883,0.2371025,0.2369187,0.2367201,0.2365049,0.2362826,0.2360657,0.2358592,0.2356706,0.2355115,0.235399,0.2353445,0.2353417,0.2353814,0.2354603,0.2355598,0.2356591,0.235756,0.2358461,0.2359158,0.2359583,0.2359672,0.2359296,0.2358348,0.2356799,0.2354596,0.2351626,0.2347952,0.2343678,0.2338919,0.2333769,0.2328238,0.2322384,0.2316388,0.2310418,0.2304587,0.2298953,0.229352,0.228824,0.2283038,0.2277919,0.2272874,0.2267886,0.2263027,0.2258288,0.2253687,0.2249272,0.2245044,0.2241096,0.2237471,0.2234197,0.2231349,0.2229041,0.2227293,0.2226057,0.2225322,0.2225191,0.2225887,0.2227617,0.2230492,0.2234555,0.2239715,0.2245719,0.2252408,0.2259796,0.2267971,0.2277085,0.2287279,0.2298586,0.2310894,0.232407,0.2337983,0.2352547,0.2367694,0.238322,0.2398842,0.2414148,0.2428692,0.2442309,0.2455192,0.2467619,0.2479672,0.2491208,0.2502078,0.2512201,0.2521692,0.2530954,0.2540416,0.2550229,0.2560302,0.2570368,0.2580178,0.2589716,0.2598926,0.2607391,0.2614189,0.2618114,0.2618219,0.2614448,0.2607755,0.2599741,0.2592027,0.2585576,0.2580616,0.2577041,0.2574506,0.2572769,0.2571825,0.2571603,0.2571962,0.2572683,0.2573404,0.2573578,0.2572568,0.2569835,0.2565288,0.2559359,0.2552762,0.2546093,0.2539715,0.2533764,0.252835,0.2523535,0.2519172,0.2515178,0.2511504,0.2508034,0.2504676,0.2501368,0.249801,0.2494537,0.2490935,0.2487228,0.2483568,0.2480076,0.2476789,0.2473708,0.2470808,0.2467958,0.2465032,0.2461965,0.2458677,0.2455145,0.2451424,0.244751,0.2443281,0.2438716,0.2433856,0.2428793,0.2423718,0.2418738,0.2413941,0.2409433,0.240528,0.2401526,0.2398354,0.2395979,0.2394502,0.2394072,0.2394815,0.2396726,0.2399882,0.2404386,0.2410266,0.2417739,0.2427225,0.2439322,0.24546,0.2473416,0.2495953,0.2522327,0.2552879,0.2588252,0.2629272,0.2676759,0.2731266,0.2792951,0.2861443,0.2935881,0.3015477,0.3099833,0.318834,0.3279569,0.3371377,0.3461319,0.3547334,0.3628224,0.3703544,0.3773017,0.3836344,0.3893466,0.394442,0.3989221,0.4027813,0.4060204,0.4086744,0.4107846,0.4123842,0.4135017,0.4141636,0.4144043,0.4142638,0.413786,0.4130168,0.4119891,0.4107398,0.4093082,0.407729,0.406036,0.4042564,0.4024178,0.4005447,0.3986456,0.3967267,0.3947974,0.3928752,0.3909736,0.3890878,0.3872008,0.3853098,0.3834245,0.3815507,0.3797051,0.3778951,0.3761266,0.3744051,0.3727323,0.3711298,0.3696082,0.3681723,0.3668289,0.3655823,0.3644413,0.3634203,0.3625453,0.3618322,0.361287,0.3609139,0.3607319,0.3607514,0.360968,0.361393,0.3620376,0.3629103,0.3640065,0.3653193,0.3668438,0.368571,0.3704873,0.3725947,0.374878,0.377313,0.3798946,0.3826008,0.3854049,0.3882628,0.3911186,0.3939036,0.3965325,0.3989435,0.4011055,0.403,0.4046403,0.4060735,0.4073407,0.4084794,0.4095147,0.4104688,0.4113589,0.4122123,0.4130521,0.4138698,0.4146736,0.4154854,0.4163112,0.4171396,0.4179789,0.4188528,0.4197538,0.4206564,0.4215422,0.4224234,0.4232837,0.4241021,0.4248676,0.4255797,0.42622,0.4267951,0.4273173,0.4277695,0.4281471,0.4284489,0.4286803,0.4288426,0.428973,0.4291036,0.4292338,0.4293726,0.4295313,0.4297271,0.429946,0.4301409,0.4302744,0.4303102,0.4302333,0.4300558,0.4297875,0.4294803,0.4291895,0.4289185,0.4286485,0.4283626,0.4280343,0.4276807,0.4272983,0.426858,0.4263235,0.4256574,0.4248986,0.4240935,0.4232414,0.4223493,0.4214425,0.4204988,0.4195204,0.4185173,0.4174994,0.4164878,0.4154981,0.4145294,0.4135762,0.4126611,0.411783,0.4109141,0.4100463,0.4091924,0.4083175,0.4074101,0.4064951,0.4055882,0.4047262,0.4039795,0.4033886,0.4029742,0.4027629,0.4027991,0.4031273,0.4038098,0.404884,0.4063511,0.4082088,0.4104663,0.4130853,0.4160192,0.4192668,0.4227798,0.4264562,0.430191,0.4339221,0.4376139,0.4412447,0.4448268,0.4483747,0.4518579,0.4552015,0.4583608,0.4613015,0.4639905,0.4663675,0.4684116,0.4700897,0.4714707,0.4726917,0.4738122,0.474883,0.4759791,0.4771459,0.4784087,0.4797758,0.4813164,0.483087,0.4850776,0.4871511,0.4891782,0.4911638,0.4931138,0.4949914,0.4965956,0.4976104,0.4977262,0.4968783,0.4953291,0.4935894,0.4920988,0.4910096,0.4903733,0.4901136,0.4901015,0.4903159,0.4907016,0.4911535,0.4916596,0.4922787,0.4929926,0.4937261,0.4944614,0.495137,0.4955804,0.4955383,0.4949178,0.4937975,0.4923791,0.4909772,0.4897733,0.4888437,0.4881489,0.4875369,0.4868876,0.4861533,0.4854058,0.4847206,0.4841419,0.4837006,0.48338,0.4831832,0.483095,0.4830532,0.4830102,0.4829544,0.4829257,0.4829285,0.4829881,0.4831563,0.4834469,0.4839005,0.4845259,0.4853166,0.4862271,0.4872307,0.4884019,0.489761,0.4912665,0.4929147,0.4946512,0.4964724,0.4984141,0.5005265,0.502854,0.5052958,0.5078559,0.5106043,0.5135448,0.5166032,0.5196951,0.5228264,0.5259668,0.5291432,0.5323413,0.5355048,0.5386544,0.541804,0.5449781,0.548211,0.551406,0.5545229,0.5575953,0.5604836,0.5631127,0.5655901,0.5678918,0.5699551,0.5718753,0.5735877,0.5750676,0.5764074,0.5775257,0.5783651,0.5789325,0.5791947,0.5791584,0.578862,0.5783766
358,93.3799973,16.5300007,83.4700012,39.3400002,35.4700012,22.1000004,74.8300018,172.2299957,30.3700008,40.7299995,4.3499999,17.7700005,17.6599998,1.08886,1.0934469,1.0972944,1.1004038,1.1027731,1.1046058,1.106149,1.1075294,1.1087872,1.1099343,1.1109389,1.1117082,1.1121426,1.1121894,1.1118953,1.1113617,1.1106341,1.1096689,1.1084466,1.106982,1.1052711,1.1034081,1.1014894,1.0994676,1.0972598,1.0947887,1.0920547,1.0890788,1.0858407,1.0823128,1.0785135,1.0745471,1.0704236,1.0661346,1.0617141,1.0572399,1.0527818,1.0483673,1.0439177,1.0394347,1.0349405,1.0305029,1.0261439,1.0218351,1.0175055,1.013178,1.0088836,1.0046632,1.0005472,0.9965764,0.9926991,0.9888916,0.9851105,0.981318,0.977457,0.9734568,0.9692829,0.9648975,0.9603171,0.9555577,0.9506553,0.9456743,0.9407082,0.9358548,0.9312031,0.9268203,0.9227391,0.9189335,0.9153303,0.9118165,0.9082561,0.9044945,0.900397,0.8958725,0.8908923,0.8854854,0.8797336,0.8737568,0.8676887,0.8616439,0.8556994,0.849878,0.8441614,0.8385046,0.8328563,0.8271701,0.8214303,0.8156353,0.8097944,0.8039364,0.7981378,0.7924893,0.7870779,0.7820412,0.7774972,0.7735348,0.7702675,0.7677768,0.7660896,0.7652075,0.7650837,0.7655799,0.7665081,0.7676381,0.7687263,0.769528,0.7698248,0.7694652,0.7683733,0.7665479,0.7640572,0.7610121,0.7575675,0.7539083,0.7502157,0.7466846,0.7434972,0.740823,0.7388324,0.7376975,0.7375869,0.7386774,0.7411386,0.7451214,0.750721,0.7579586,0.7667562,0.7769365,0.7882128,0.8001834,0.8123503,0.8241401,0.8349481,0.844149,0.8511464,0.8554329,0.856652,0.8546675,0.8495682,0.8416981,0.8316148,0.8200239,0.807677,0.7952659,0.783359,0.7723623,0.7625052,0.7538557,0.7463548,0.7398362,0.7340637,0.7287593,0.7236235,0.7183611,0.7126917,0.7063732,0.6992128,0.691076,0.6818977,0.671659,0.6603992,0.6482095,0.6352214,0.6216028,0.607537,0.593221,0.5788563,0.5646376,0.5507363,0.537301,0.5244496,0.5122593,0.5007778,0.4900225,0.4799812,0.4706177,0.4618798,0.4537134,0.4460592,0.4388605,0.4320585,0.4256046,0.4194631,0.4136042,0.4080163,0.4026984,0.3976507,0.392871,0.3883505,0.384078,0.380037,0.3762112,0.3725854,0.3691429,0.3658635,0.3627281,0.3597169,0.3568159,0.3540153,0.3513071,0.3486815,0.3461268,0.3436399,0.3412232,0.3388879,0.336646,0.334501,0.3324506,0.3304901,0.3286106,0.326803,0.3250576,0.3233666,0.3217227,0.3201242,0.3185702,0.3170565,0.3155814,0.3141361,0.3127264,0.3113522,0.3100088,0.3086941,0.3074094,0.3061525,0.3049211,0.3037156,0.3025297,0.3013639,0.3002216,0.2990989,0.2979906,0.2968886,0.2958024,0.2947309,0.2936815,0.2926503,0.2916236,0.2906013,0.2895909,0.2885926,0.2876089,0.2866358,0.2856731,0.2847211,0.2837787,0.2828484,0.2819282,0.2810178,0.2801172,0.2792272,0.2783502,0.2774891,0.2766405,0.2757995,0.2749632,0.2741303,0.2732998,0.2724748,0.2716539,0.2708365,0.270023,0.269216,0.268415,0.2676169,0.2668226,0.266034,0.2652522,0.2644759,0.2637053,0.2629436,0.2621945,0.2614573,0.2607309,0.2600178,0.2593198,0.2586367,0.2579669,0.2573101,0.2566622,0.256025,0.2553989,0.2547809,0.2541716,0.2535682,0.2529705,0.2523771,0.2517899,0.2512076,0.2506287,0.2500579,0.2494915,0.2489291,0.24837,0.2478138,0.2472614,0.2467152,0.2461708,0.2456322,0.2450994,0.2445722,0.244052,0.2435374,0.243029,0.2425249,0.2420273,0.2415352,0.2410472,0.2405608,0.2400766,0.2395921,0.2391109,0.2386336,0.2381606,0.2376923,0.237229,0.2367726,0.2363218,0.2358729,0.235428,0.2349872,0.2345534,0.2341242,0.2337024,0.2332901,0.2328834,0.2324806,0.2320809,0.2316853,0.2312918,0.2308983,0.2305051,0.2301124,0.2297219,0.2293361,0.2289563,0.2285826,0.2282133,0.2278515,0.227497,0.2271475,0.2268069,0.2264738,0.2261579,0.2258497,0.2255315,0.2251841,0.2247968,0.224376,0.2239379,0.2248533,0.2245275,0.2242173,0.2239282,0.2236651,0.2234139,0.2231594,0.2229077,0.2226828,0.2224896,0.2223138,0.2221488,0.2219961,0.2218598,0.2217526,0.2216771,0.2216213,0.2215841,0.2215678,0.2215632,0.2215617,0.221563,0.2215791,0.2216229,0.2216892,0.2217739,0.2218812,0.2220113,0.22216,0.2223272,0.2225149,0.2227166,0.2229133,0.2230889,0.2232496,0.2234039,0.2235499,0.22369,0.223834,0.223992,0.2241621,0.2243312,0.2244845,0.2246075,0.2246883,0.2247187,0.2247007,0.2246465,0.2245665,0.2244722,0.224368,0.2242531,0.2241234,0.223973,0.2237989,0.2235882,0.2233332,0.2230388,0.2227089,0.2223434,0.221941,0.2215124,0.2210745,0.2206408,0.2202251,0.2198398,0.2194849,0.2191458,0.2188126,0.2184949,0.2181967,0.2179077,0.2176307,0.2173749,0.2171389,0.2169164,0.2167021,0.2164972,0.2163128,0.2161531,0.2160095,0.2158778,0.2157553,0.2156374,0.2155263,0.215423,0.2153197,0.2152092,0.2150863,0.2149568,0.2148229,0.2146849,0.2145486,0.21442,0.2143005,0.2141861,0.2140771,0.2139745,0.2138804,0.2137987,0.2137287,0.2136723,0.2136286,0.2135966,0.2135783,0.213574,0.2135886,0.2136232,0.2136717,0.2137345,0.2138163,0.2139225,0.2140553,0.2142138,0.2144011,0.2146159,0.2148595,0.215129,0.2154242,0.2157584,0.2161389,0.2165633,0.2170251,0.2175177,0.2180352,0.2185729,0.2191247,0.2196855,0.2202514,0.2208149,0.2213708,0.2219203,0.2224709,0.2230281,0.223593,0.2241695,0.2247636,0.2253868,0.2260587,0.2268003,0.2276251,0.2285371,0.2295362,0.2306178,0.2317726,0.23299,0.2342603,0.2355856,0.2369895,0.2385028,0.2401517,0.2419618,0.2439489,0.246103,0.2483786,0.2506976,0.2529657,0.255098,0.2570553,0.2588577,0.2605619,0.2622178,0.2638451,0.2654355,0.2669641,0.2684059,0.2697529,0.2710046,0.2721606,0.2732249,0.2741966,0.27508,0.2758828,0.2766145,0.277291,0.2779263,0.2785317,0.2791174,0.2796897,0.2802435,0.2807702,0.2812662,0.2817312,0.2821598,0.282542,0.2828721,0.2831542,0.2834005,0.2836206,0.2838221,0.2840156,0.2842012,0.2843722,0.2845254,0.2846576,0.2847605,0.2848208,0.2848348,0.2848038,0.2847241,0.2845934,0.2844093,0.2841707,0.2838859,0.283565,0.2832095,0.2828231,0.2824181,0.2820131,0.2816176,0.281231,0.2808565,0.2804985,0.2801575,0.27984,0.279558,0.2793135,0.279096,0.2788954,0.2787088,0.2785279,0.2783393,0.2781382,0.2779306,0.2777246,0.2775241,0.2773367,0.2771757,0.2770534,0.2769715,0.2769251,0.2769109,0.2769276,0.2769608,0.276991,0.2770177,0.2770413,0.2770516,0.2770441,0.2770109,0.2769423,0.276835,0.2766842,0.2764883,0.2762451,0.275959,0.2756348,0.2752801,0.2749043,0.2745095,0.2740954,0.2736737,0.2732579,0.2728558,0.2724704,0.2720983,0.2717377,0.2713842,0.2710356,0.2706926,0.270351,0.2700118,0.2696775,0.2693542,0.2690455,0.2687467,0.2684663,0.2682104,0.2679777,0.2677743,0.2676114,0.2674851,0.2673914,0.2673336,0.267322,0.2673691,0.2674811,0.2676654,0.267928,0.2682625,0.268655,0.2691016,0.269614,0.2702048,0.2708782,0.2716324,0.2724628,0.2733615,0.2743202,0.2753299,0.2763883,0.2774959,0.2786383,0.2797917,0.2809192,0.281984,0.282969,0.2838874,0.2847663,0.2856174,0.2864353,0.2872144,0.2879496,0.2886471,0.2893352,0.2900505,0.2908077,0.2916035,0.292425,0.2932516,0.2940756,0.2948903,0.2956572,0.2962905,0.2966736,0.2967117,0.2963926,0.2957968,0.2950735,0.2943748,0.2937889,0.2933368,0.293007,0.2927688,0.2925997,0.2924978,0.2924563,0.2924604,0.2924905,0.292518,0.2924994,0.2923832,0.2921213,0.2917035,0.2911646,0.2905643,0.2899573,0.2893809,0.2888497,0.2883687,0.2879402,0.2875559,0.2872075,0.2868865,0.286584,0.2862983,0.2860305,0.2857675,0.2854952,0.2852108,0.2849178,0.2846286,0.28435,0.2840843,0.2838304,0.2835875,0.2833488,0.2831023,0.2828424,0.2825645,0.282266,0.2819524,0.2816235,0.2812698,0.2808916,0.280491,0.2800746,0.2796601,0.2792608,0.2788837,0.2785279,0.2781903,0.2778707,0.2775888,0.2773666,0.2772108,0.2771347,0.2771469,0.2772453,0.2774391,0.2777367,0.2781359,0.2786534,0.2793255,0.2801977,0.2813089,0.2826929,0.2843756,0.2863686,0.2886953,0.2914139,0.294597,0.2983093,0.3026051,0.3075162,0.3130343,0.3191025,0.325654,0.3326486,0.3400296,0.3476686,0.3553723,0.3629216,0.3701279,0.3768732,0.3831168,0.3888374,0.3940147,0.3986541,0.4027604,0.4063402,0.4094092,0.4119868,0.4140994,0.4157698,0.4170254,0.4178922,0.4183944,0.4185607,0.4184187,0.4179979,0.4173329,0.4164558,0.4153993,0.4141863,0.4128377,0.4113854,0.4098597,0.4082856,0.4066838,0.4050593,0.4034146,0.4017585,0.4001073,0.3984729,0.3968484,0.3952186,0.3935863,0.3919656,0.3903632,0.3887908,0.387253,0.3857548,0.3842975,0.3828801,0.3815228,0.3802321,0.3790066,0.3778535,0.376783,0.3758023,0.3749163,0.3741458,0.3735049,0.3729898,0.3725998,0.372363,0.3722961,0.3723928,0.3726591,0.3731047,0.3737434,0.3745749,0.3755948,0.3768012,0.378185,0.3797252,0.3814203,0.3832588,0.3852193,0.3873015,0.3894908,0.3917605,0.3940648,0.3963642,0.3986124,0.4007359,0.4026775,0.4044034,0.4058963,0.407175,0.4082801,0.4092377,0.410076,0.4108211,0.4115008,0.4121349,0.4127464,0.4133556,0.4139575,0.4145586,0.4151692,0.4157899,0.4164183,0.4170661,0.4177488,0.4184521,0.4191553,0.4198549,0.4205659,0.4212587,0.4219046,0.4225039,0.4230739,0.4236007,0.4240796,0.4245056,0.4248587,0.4251462,0.4253731,0.4255433,0.4256613,0.4257663,0.4258871,0.426026,0.4261901,0.4263745,0.4265837,0.4268244,0.427081,0.427321,0.4274995,0.4276001,0.4276412,0.427632,0.4276094,0.427609,0.4276251,0.427647,0.4276662,0.427646,0.4275816,0.4274559,0.4272458,0.4269411,0.4265279,0.4260448,0.4255245,0.4249599,0.4243613,0.423757,0.4231292,0.4224862,0.421836,0.4211758,0.420512,0.4198614,0.4192436,0.4186747,0.4181814,0.4177612,0.4173833,0.4170094,0.4165846,0.4159885,0.4151386,0.4140561,0.4128341,0.4115973,0.4104684,0.4095225,0.4087976,0.4082945,0.4080113,0.4079788,0.4082785,0.4089596,0.4100185,0.4114414,0.4132189,0.4153064,0.4176746,0.4203404,0.4232726,0.4263912,0.4296103,0.4328735,0.436128,0.4393339,0.4425026,0.4456488,0.4487421,0.4517162,0.4545329,0.4571625,0.4595858,0.4617623,0.4636776,0.4652889,0.4666604,0.4679351,0.4691656,0.4703785,0.471623,0.472931,0.4743284,0.4758215,0.4774706,0.4793189,0.4813467,0.4834274,0.4854558,0.4874535,0.4894173,0.4912944,0.4928899,0.4938847,0.4939277,0.4929136,0.4911063,0.4890642,0.4872931,0.485994,0.4852475,0.4849711,0.4849736,0.4851889,0.4855887,0.4860976,0.4866887,0.4874027,0.4882266,0.4891011,0.4900156,0.4908999,0.4915611,0.4917144,0.4912336,0.4901853,0.4887993,0.4874274,0.4862599,0.4853708,0.4847264,0.4841873,0.4836549,0.4830924,0.4825637,0.4821382,0.481848,0.4816938,0.4816202,0.4816026,0.4816272,0.4816747,0.481734,0.4817681,0.4817863,0.4818093,0.4818741,0.4820149,0.4822414,0.4826133,0.4831606,0.4838932,0.4847561,0.4856975,0.4867918,0.4880587,0.4894362,0.4909175,0.4924656,0.4941057,0.4959012,0.4978883,0.500057,0.5022645,0.5045146,0.5069097,0.5094885,0.5121799,0.5148854,0.5176161,0.520348,0.5230839,0.5258009,0.5284877,0.5311823,0.5338905,0.536635,0.5394449,0.5422459,0.5449584,0.5475057,0.5497653,0.5518128,0.5538436,0.5557919,0.557498,0.5590125,0.5603414,0.5615452,0.5626935,0.5636438,0.5643134,0.5647154,0.5649014,0.5649889,0.5649584,0.5646842
359,91.5199966,8.0299997,91.9700012,41.3499985,32.8699989,25.2999992,75.6900024,206.6799927,32.8699989,43.4700012,3.6600001,16.2000008,15.9200001,1.0066497,1.0109082,1.0143967,1.0172631,1.0196047,1.0215167,1.023025,1.0241683,1.0250859,1.025925,1.0267239,1.0274056,1.0278469,1.0279057,1.0274715,1.0265316,1.0252081,1.023671,1.0220264,1.0202593,1.0183225,1.0163441,1.0144737,1.0126663,1.0108047,1.0087854,1.0066086,1.0042931,1.001776,0.9989403,0.9957038,0.9920961,0.9881089,0.9837738,0.9791707,0.9743924,0.9695297,0.9646514,0.9596956,0.9546438,0.9495063,0.9443699,0.9392793,0.9341997,0.9290273,0.9237407,0.9183191,0.9127539,0.9070531,0.9012665,0.8953706,0.8893827,0.8832979,0.8770958,0.8707201,0.8640969,0.8571879,0.8499643,0.8424836,0.8348323,0.8271321,0.8195514,0.8123145,0.8056644,0.7998203,0.7949361,0.7910678,0.7881386,0.7859533,0.7842219,0.7825946,0.7806906,0.7781751,0.7748221,0.7705571,0.7654606,0.7597454,0.7536944,0.7475892,0.7416504,0.736013,0.730715,0.7257205,0.7209404,0.716263,0.7115841,0.7068533,0.7020656,0.6972524,0.6924769,0.6878556,0.6835212,0.6796023,0.6762758,0.6736957,0.6719825,0.6712753,0.6716737,0.6732108,0.6758693,0.6795517,0.6840364,0.6890189,0.6941204,0.6989336,0.7030604,0.7061602,0.708001,0.7084777,0.7076184,0.7055718,0.7025694,0.6989169,0.6949696,0.6910816,0.6876038,0.6848494,0.6830907,0.6825705,0.6834974,0.6860381,0.6903304,0.6964746,0.7045374,0.7145362,0.7264425,0.740171,0.755574,0.7724079,0.7902961,0.8087125,0.8269711,0.8442458,0.859571,0.8718995,0.8802102,0.8836535,0.8817177,0.8743093,0.8618189,0.8450629,0.8251578,0.803341,0.7807935,0.7585242,0.7373065,0.7176577,0.699856,0.6839802,0.669937,0.6575075,0.6463826,0.6361963,0.6265637,0.6171014,0.6074601,0.5973437,0.5865269,0.5748731,0.5623164,0.5488752,0.5346442,0.5197816,0.5044982,0.4890275,0.4736119,0.4584834,0.4438469,0.4298633,0.4166513,0.4042825,0.392778,0.3821261,0.3722872,0.3632002,0.3547873,0.3469656,0.3396594,0.3327959,0.3263113,0.3201441,0.3142471,0.3085894,0.3031481,0.2979194,0.2929111,0.2881314,0.2835864,0.2792767,0.2752005,0.2713479,0.2677054,0.2642583,0.2609885,0.2578737,0.2548937,0.252029,0.2492661,0.2465944,0.2440057,0.2414913,0.2390405,0.2366495,0.2343184,0.2320569,0.229877,0.2277846,0.2257809,0.2238638,0.2220244,0.2202523,0.2185374,0.2168716,0.2152481,0.2136663,0.2121266,0.2106255,0.2091621,0.2077274,0.2063271,0.204962,0.2036284,0.2023246,0.2010522,0.1998096,0.1985946,0.1974078,0.1962434,0.1951035,0.193993,0.1929088,0.1918449,0.1907931,0.1897631,0.1887542,0.1877739,0.1868188,0.1858751,0.1849434,0.1840316,0.1831404,0.1822725,0.1814236,0.1805922,0.1797776,0.1789785,0.1781983,0.177435,0.1766874,0.1759543,0.1752353,0.1745326,0.1738489,0.1731793,0.1725179,0.1718621,0.1712109,0.1705633,0.1699216,0.1692854,0.1686541,0.1680274,0.1674075,0.1667943,0.1661858,0.1655834,0.1649884,0.1644015,0.1638214,0.1632489,0.1626873,0.1621406,0.1616091,0.1610926,0.1605933,0.1601138,0.1596547,0.1592142,0.1587913,0.1583811,0.1579866,0.1576094,0.1572477,0.1569021,0.1565693,0.1562475,0.155933,0.155624,0.1553165,0.1550066,0.1546978,0.1543855,0.1540695,0.1537493,0.1534249,0.1530972,0.1527687,0.1524357,0.1521031,0.1517715,0.1514409,0.1511133,0.1507879,0.1504657,0.1501449,0.1498271,0.1495108,0.1491949,0.1488767,0.1485571,0.1482333,0.1479081,0.1475826,0.1472578,0.1469346,0.1466136,0.1462969,0.1459842,0.1456725,0.1453639,0.145058,0.1447574,0.1444594,0.1441665,0.1438812,0.1435996,0.1433202,0.1430421,0.1427667,0.1424928,0.1422186,0.1419439,0.1416682,0.1413931,0.1411213,0.1408541,0.1405918,0.1403327,0.1400806,0.1398345,0.1395899,0.1393478,0.1391064,0.1388784,0.13866,0.1384393,0.1382006,0.1379338,0.1376433,0.1373409,0.1366737,0.1364848,0.1363033,0.1361376,0.1359956,0.1358698,0.1357497,0.135638,0.1355535,0.1354997,0.1354686,0.1354614,0.1354798,0.1355237,0.1356038,0.1357251,0.1358789,0.1360636,0.136277,0.13651,0.1367581,0.1370215,0.1373081,0.1376257,0.1379705,0.1383429,0.1387491,0.1391939,0.139677,0.1401906,0.1407226,0.1412538,0.141761,0.1422338,0.1426805,0.1431081,0.1435155,0.1439082,0.1443028,0.144711,0.1451255,0.1455292,0.1458993,0.1462116,0.1464547,0.1466258,0.1467266,0.1467669,0.1467569,0.1467138,0.1466504,0.1465695,0.1464692,0.1463442,0.1461836,0.145969,0.1456947,0.1453652,0.144983,0.1445505,0.1440686,0.1435483,0.1430105,0.1424802,0.1419741,0.1414951,0.1410427,0.1406136,0.1402021,0.1398136,0.1394492,0.1391002,0.1387715,0.1384685,0.1381851,0.1379176,0.1376669,0.1374369,0.1372375,0.1370722,0.1369336,0.1368147,0.1367081,0.1366056,0.1365048,0.1364052,0.1362994,0.1361812,0.1360478,0.1359042,0.1357461,0.1355725,0.1353946,0.1352251,0.1350666,0.1349107,0.1347589,0.1346212,0.134501,0.1344005,0.1343202,0.1342602,0.1342176,0.1341955,0.134201,0.1342362,0.1343019,0.1343957,0.1345152,0.1346625,0.1348416,0.1350594,0.1353197,0.1356234,0.1359767,0.1363796,0.1368344,0.1373392,0.1378945,0.1385114,0.1391937,0.1399374,0.140733,0.1415655,0.1424233,0.1432993,0.1441851,0.1450762,0.1459743,0.1468743,0.1477671,0.1486433,0.1494966,0.150317,0.1510923,0.1518196,0.1525043,0.1531644,0.1538329,0.1545474,0.1553447,0.1562542,0.1572924,0.1584639,0.1597687,0.1612034,0.1627591,0.164434,0.1662527,0.1682472,0.1704334,0.1728223,0.1754169,0.1782012,0.1811492,0.1842286,0.1873993,0.1906181,0.1938468,0.1970521,0.2002069,0.2032803,0.2062396,0.2090542,0.2116968,0.2141477,0.2164001,0.2184528,0.220311,0.2219883,0.2234961,0.2248503,0.226064,0.227151,0.2281354,0.2290428,0.2298923,0.2306949,0.2314559,0.2321748,0.2328491,0.2334799,0.234067,0.2346018,0.2350734,0.235478,0.2358196,0.2361097,0.2363601,0.2365792,0.2367748,0.2369527,0.2371153,0.2372558,0.2373645,0.2374367,0.2374635,0.2374423,0.2373704,0.2372391,0.2370479,0.2368014,0.2365029,0.23616,0.2357783,0.2353583,0.2349059,0.2344361,0.2339699,0.2335148,0.2330694,0.2326423,0.2322433,0.2318761,0.2315437,0.2312515,0.2309974,0.2307715,0.230571,0.2303958,0.2302294,0.2300528,0.2298622,0.2296659,0.2294771,0.2293034,0.2291487,0.22902,0.228932,0.2288938,0.2288972,0.2289309,0.2289951,0.229078,0.2291596,0.2292366,0.2293051,0.2293538,0.2293794,0.2293722,0.2293168,0.2292092,0.2290511,0.2288397,0.2285663,0.228233,0.2278429,0.227406,0.2269367,0.2264367,0.2259082,0.2253704,0.2248411,0.2243262,0.223825,0.2233342,0.222853,0.2223797,0.2219173,0.2214644,0.2210114,0.2205622,0.2201245,0.2197087,0.2193199,0.2189493,0.2186018,0.2182864,0.2180044,0.2177594,0.2175609,0.2174129,0.2173171,0.217273,0.2172869,0.217373,0.2175456,0.2178211,0.2182064,0.2186892,0.2192466,0.219866,0.220551,0.2213105,0.2221561,0.2230945,0.2241241,0.2252375,0.2264218,0.2276599,0.2289424,0.230266,0.2316172,0.2329773,0.2343149,0.2355926,0.2367934,0.2379309,0.2390231,0.2400706,0.241067,0.2420134,0.2429097,0.2437638,0.2446064,0.245475,0.246383,0.2473201,0.2482567,0.2491577,0.2500077,0.2507949,0.2514886,0.2520231,0.2523025,0.2522553,0.2518865,0.2512776,0.2505617,0.2498705,0.249282,0.2488188,0.2484774,0.2482306,0.2480536,0.2479443,0.2478976,0.2478996,0.2479297,0.2479556,0.2479335,0.2478177,0.2475659,0.2471654,0.2466476,0.2460719,0.2454867,0.2449211,0.2443911,0.2439097,0.243483,0.243099,0.2427461,0.2424166,0.2421009,0.2417933,0.2414904,0.2411838,0.2408678,0.2405398,0.2402017,0.2398666,0.2395417,0.2392343,0.2389466,0.2386716,0.2383977,0.2381182,0.2378282,0.2375169,0.237184,0.2368375,0.236472,0.2360729,0.2356395,0.2351786,0.2347021,0.2342225,0.2337438,0.2332757,0.2328322,0.2324238,0.2320547,0.2317419,0.2315017,0.2313397,0.2312692,0.2312993,0.2314311,0.2316724,0.2320297,0.2325041,0.233112,0.2338874,0.234883,0.2361519,0.2377301,0.2396363,0.2418817,0.2444957,0.2475408,0.2510973,0.2552408,0.2600278,0.2654833,0.271589,0.2782802,0.2854886,0.2931708,0.3012627,0.309634,0.3180928,0.3264155,0.3343982,0.3418988,0.3488624,0.3552699,0.3610995,0.3663386,0.3709772,0.3750108,0.3784439,0.381298,0.3836087,0.3854014,0.3867001,0.3875325,0.3879343,0.3879491,0.387622,0.3869982,0.3861181,0.3850106,0.3837068,0.3822405,0.3806464,0.3789592,0.3772071,0.3754174,0.3736157,0.3718089,0.3699991,0.3681945,0.3664079,0.3646504,0.3629195,0.3611975,0.3594754,0.3577582,0.3560499,0.3543593,0.3526883,0.3510463,0.3494434,0.3478837,0.3463959,0.3449927,0.3436705,0.3424358,0.3413025,0.3402828,0.3393825,0.3386236,0.3380285,0.3376046,0.3373547,0.337299,0.3374488,0.3377969,0.3383462,0.3391039,0.3400828,0.3412836,0.3427054,0.3443445,0.3461905,0.3482275,0.3504539,0.3528515,0.3553965,0.3580833,0.3608817,0.3637552,0.3666568,0.3695401,0.3723474,0.3749964,0.377429,0.3796202,0.3815564,0.3832496,0.3847424,0.386071,0.3872687,0.3883631,0.3893831,0.3903478,0.3912736,0.3921741,0.393043,0.3938919,0.3947389,0.3955941,0.3964562,0.3973243,0.3982059,0.3990899,0.3999553,0.4007931,0.4016213,0.402421,0.4031673,0.4038559,0.4044964,0.405075,0.4055902,0.4060376,0.4064041,0.4067004,0.4069321,0.4071099,0.4072365,0.4073296,0.4074067,0.4074841,0.4075813,0.4076914,0.4078113,0.4079379,0.4080455,0.4080961,0.4080524,0.4079051,0.407666,0.4073435,0.4069921,0.4066686,0.406371,0.4060749,0.405772,0.405452,0.4051253,0.4047597,0.404321,0.4038013,0.4031797,0.4024836,0.4017423,0.4009489,0.4001144,0.3992659,0.398381,0.3974672,0.396539,0.3956003,0.3946657,0.3937554,0.3928728,0.3920014,0.391156,0.3903514,0.3895701,0.388789,0.3880071,0.3872036,0.3863932,0.3856115,0.3848717,0.3841982,0.3836465,0.3832565,0.3830547,0.3830644,0.3833288,0.3838959,0.3848164,0.3861071,0.3877674,0.3898044,0.3922152,0.3949445,0.3979523,0.4012404,0.4047421,0.4083421,0.4119529,0.4155442,0.4190965,0.4225867,0.42602,0.4294083,0.4327201,0.4358725,0.438823,0.4415579,0.4440583,0.4462568,0.4481354,0.4496904,0.4510023,0.452186,0.4532773,0.4543199,0.4553896,0.4565271,0.4577486,0.4590566,0.4605122,0.4621527,0.4639542,0.4657846,0.4675404,0.4692681,0.4709769,0.4725948,0.47393,0.4747432,0.4748056,0.4740756,0.4727687,0.4713058,0.4700393,0.4690907,0.4685456,0.46836,0.4683829,0.468562,0.4688599,0.4692209,0.4696505,0.4701752,0.470766,0.4713836,0.4720173,0.4725812,0.4729301,0.4728777,0.4723526,0.4713905,0.4701367,0.468877,0.4677732,0.4668741,0.4661293,0.4654209,0.4646931,0.4639441,0.4632427,0.4626172,0.4620565,0.4615792,0.4611945,0.4609156,0.4607262,0.4605937,0.4605053,0.4604488,0.4604179,0.4603655,0.4603316,0.4604203,0.4606456,0.4610091,0.4615222,0.4622183,0.4630556,0.4639923,0.4651152,0.4664393,0.4678879,0.4694443,0.4710702,0.4728038,0.4747159,0.4768198,0.4790905,0.481423,0.4838566,0.4864593,0.4892474,0.492188,0.4951982,0.4982517,0.501274,0.5042645,0.5072815,0.5103877,0.5135824,0.5167484,0.5198305,0.5228973,0.5259697,0.5290534,0.5320742,0.5347937,0.5371903,0.5394921,0.5416963,0.543678,0.5455246,0.5471932,0.5486292,0.549895,0.5509126,0.5516605,0.5521587,0.5523494,0.5522784,0.5520359,0.5516433
360,92.5,10.54,89.4599991,35.9799995,31.5100002,29.8299999,82.2099991,201.7100067,30.9899998,37.7000008,4.0799999,15.6400003,15.3699999,1.0233424,1.0285069,1.0330209,1.0369692,1.0403035,1.0431297,1.0456381,1.0479387,1.0501115,1.0522872,1.0545075,1.0565711,1.0581865,1.0592393,1.0598538,1.0601724,1.0602075,1.0599287,1.0594059,1.0587566,1.0580447,1.0573426,1.0566306,1.0557692,1.0546883,1.0533404,1.0516922,1.0497041,1.0473173,1.0444928,1.0412296,1.0375947,1.0336149,1.0293752,1.0249823,1.0205275,1.0160986,1.0117663,1.0074723,1.0032032,0.9989637,0.994819,0.9907879,0.9868196,0.9828057,0.9787314,0.9745993,0.9704346,0.9662637,0.962122,0.9579477,0.9537169,0.9494001,0.9449683,0.9403592,0.935487,0.9303012,0.9247533,0.9188717,0.9127153,0.9063864,0.9000353,0.8938656,0.8881013,0.8829446,0.8785388,0.8749439,0.8721053,0.8698573,0.8679349,0.8660185,0.8637744,0.8609204,0.8572691,0.8527643,0.8474835,0.8416175,0.8354235,0.8291661,0.8230489,0.8171836,0.8115813,0.8061832,0.8008855,0.7955716,0.7901379,0.7845324,0.7787464,0.7728148,0.7668184,0.7609028,0.7552364,0.7499892,0.7453808,0.7416043,0.7388164,0.7371923,0.7368618,0.7378726,0.7402058,0.7437451,0.7482323,0.7533127,0.7585502,0.7634757,0.7676277,0.770611,0.7721578,0.7721487,0.7706126,0.7677107,0.7636936,0.7588879,0.7536708,0.7484173,0.7434984,0.7392431,0.7359361,0.7338413,0.7332164,0.7343147,0.7373943,0.7426954,0.7504229,0.7607037,0.7735638,0.7888992,0.8064666,0.8258612,0.8465042,0.8676599,0.8884562,0.9079282,0.9250305,0.9387026,0.9479688,0.9520649,0.9505858,0.9435594,0.9315019,0.9153482,0.8963091,0.8756782,0.8546512,0.8342158,0.8150921,0.7977154,0.7822617,0.7686996,0.756827,0.7463189,0.7367653,0.72771,0.7186965,0.7092919,0.6991187,0.6878739,0.6753467,0.6614361,0.6461282,0.6295078,0.6117494,0.5930994,0.5738613,0.5543611,0.5349279,0.5158712,0.4974588,0.4798978,0.4633344,0.4478526,0.4334741,0.4201805,0.4079197,0.3966146,0.3861712,0.376491,0.3674855,0.3590694,0.3511682,0.3437105,0.3366385,0.329907,0.3234771,0.3173296,0.3114588,0.3058608,0.3005299,0.2954552,0.2906242,0.2860199,0.2816259,0.2774279,0.2734083,0.2695446,0.2658168,0.2622073,0.2587057,0.2553045,0.2519964,0.2487717,0.245618,0.2425314,0.2395145,0.2365795,0.2337402,0.2310019,0.2283646,0.225825,0.2233735,0.2209997,0.2186935,0.2164472,0.214254,0.2121127,0.2100227,0.2079803,0.2059844,0.2040256,0.2021094,0.2002365,0.1984028,0.1966054,0.1948456,0.1931231,0.1914367,0.1897864,0.1881659,0.186577,0.1850237,0.1835026,0.1820082,0.1805321,0.1790835,0.1776621,0.176276,0.1749213,0.1735837,0.1722635,0.1709686,0.1696999,0.1684598,0.1672443,0.1660529,0.1648858,0.163741,0.1626205,0.1615211,0.160442,0.1593831,0.1583448,0.1573287,0.1563365,0.1553628,0.1544013,0.1534487,0.152504,0.1515663,0.1506376,0.1497162,0.1488022,0.1478969,0.1470037,0.1461218,0.1452483,0.1443839,0.1435302,0.1426883,0.1418572,0.1410381,0.1402353,0.1394536,0.1386936,0.1379552,0.1372416,0.1365554,0.1358975,0.1352661,0.1346599,0.1340737,0.1335093,0.1329674,0.1324458,0.131945,0.1314621,0.1309949,0.1305395,0.130094,0.1296539,0.1292149,0.1287802,0.128345,0.1279082,0.1274689,0.127027,0.1265838,0.1261421,0.125698,0.1252561,0.1248171,0.1243813,0.123951,0.1235258,0.1231063,0.1226902,0.1222785,0.1218694,0.1214605,0.1210485,0.1206338,0.1202143,0.1197936,0.119373,0.1189535,0.1185364,0.1181222,0.1177126,0.1173077,0.1169046,0.116505,0.1161087,0.1157189,0.1153341,0.1149572,0.1145893,0.1142257,0.1138649,0.1135069,0.1131537,0.1128038,0.1124549,0.1121063,0.1117582,0.1114128,0.1110731,0.11074,0.1104134,0.1100919,0.1097792,0.1094742,0.1091724,0.1088748,0.1085792,0.1082987,0.1080304,0.1077642,0.1074856,0.1071859,0.1068703,0.1065502,0.1062383,0.1060433,0.1058599,0.105691,0.1055449,0.105415,0.1052922,0.1051846,0.105112,0.1050741,0.1050629,0.1050836,0.1051438,0.1052504,0.1054201,0.1056612,0.1059631,0.1063185,0.1067209,0.1071541,0.1076058,0.1080758,0.1085755,0.1091151,0.109692,0.110307,0.1109677,0.1116798,0.1124425,0.1132462,0.1140736,0.1149013,0.1157021,0.1164564,0.1171665,0.1178377,0.1184699,0.1190781,0.1196923,0.1203294,0.1209742,0.1215952,0.1221629,0.1226497,0.1230335,0.1233036,0.1234676,0.1235447,0.1235526,0.1235137,0.123441,0.1233364,0.1231991,0.1230262,0.1228077,0.1225221,0.1221593,0.121722,0.1212086,0.1206213,0.1199727,0.1192866,0.1185868,0.1178957,0.1172323,0.1166073,0.1160255,0.1154839,0.1149757,0.1145026,0.1140625,0.1136487,0.1132648,0.112914,0.1125912,0.1122929,0.1120208,0.1117812,0.1115807,0.1114183,0.1112857,0.1111764,0.1110855,0.1110083,0.1109404,0.1108722,0.1107919,0.1106954,0.1105803,0.1104472,0.1102923,0.1101197,0.1099433,0.1097733,0.1096122,0.1094585,0.1093203,0.1092042,0.1091066,0.1090257,0.1089631,0.1089274,0.1089235,0.1089536,0.1090214,0.1091251,0.1092632,0.1094375,0.1096486,0.1098993,0.110194,0.1105406,0.1109467,0.1114163,0.1119492,0.1125378,0.1131851,0.1138942,0.11467,0.1155245,0.1164567,0.1174571,0.1185163,0.1196243,0.1207717,0.1219464,0.1231335,0.1243243,0.1255182,0.1267102,0.1278884,0.1290426,0.1301707,0.1312652,0.132309,0.1332921,0.1342191,0.1351148,0.1360199,0.1369796,0.1380365,0.1392225,0.1405582,0.142049,0.1436895,0.1454716,0.1473836,0.149422,0.1516092,0.1539757,0.1565405,0.1593172,0.1623054,0.1654819,0.1688086,0.172241,0.1757383,0.1792639,0.1827816,0.1862568,0.189662,0.1929728,0.1961615,0.1991966,0.2020505,0.2047042,0.2071546,0.2094042,0.2114577,0.2133278,0.2150268,0.2165698,0.2179717,0.2192477,0.2204194,0.22151,0.2225399,0.2235214,0.2244612,0.225359,0.226211,0.2270151,0.2277676,0.2284574,0.2290734,0.2296163,0.2300966,0.2305268,0.2309172,0.2312804,0.2316288,0.2319632,0.232278,0.2325671,0.2328233,0.2330406,0.2332121,0.2333344,0.2334007,0.2334015,0.2333346,0.2332023,0.2330087,0.232761,0.2324653,0.2321244,0.2317454,0.2313416,0.2309307,0.2305232,0.2301247,0.229745,0.2293936,0.2290769,0.2287974,0.2285594,0.2283611,0.2281925,0.2280497,0.227935,0.2278352,0.2277268,0.227599,0.2274584,0.2273178,0.2271875,0.2270783,0.227001,0.2269707,0.2269968,0.2270744,0.2271964,0.2273598,0.2275479,0.2277377,0.2279222,0.2280952,0.2282445,0.2283646,0.2284473,0.2284781,0.2284515,0.2283708,0.2282328,0.2280255,0.227752,0.2274228,0.2270505,0.2266453,0.2262102,0.2257483,0.2252752,0.2248075,0.224356,0.2239235,0.2235034,0.2230916,0.2226875,0.2222948,0.2219117,0.2215267,0.2211387,0.2207545,0.2203868,0.2200421,0.2197135,0.2194038,0.219117,0.2188559,0.2186287,0.2184471,0.2183114,0.2182185,0.2181695,0.2181747,0.2182575,0.2184416,0.2187459,0.2191796,0.2197295,0.2203654,0.2210685,0.2218392,0.2226864,0.2236256,0.2246736,0.2258405,0.2271198,0.2284957,0.2299497,0.2314687,0.2330432,0.2346538,0.2362719,0.2378557,0.2393651,0.2407875,0.2421405,0.2434449,0.2447019,0.2458961,0.2470157,0.2480542,0.2490221,0.2499577,0.2508998,0.2518529,0.2528022,0.2537318,0.2546285,0.2554897,0.2563056,0.2570415,0.2576231,0.2579446,0.2579229,0.2575562,0.2569274,0.2561764,0.2554455,0.2548198,0.2543233,0.2539532,0.2536828,0.2534878,0.2533622,0.2532971,0.2532815,0.2532961,0.2533058,0.2532619,0.2531098,0.2528011,0.2523276,0.2517283,0.2510682,0.2504028,0.2497675,0.249177,0.2486397,0.2481615,0.2477321,0.2473448,0.246993,0.2466627,0.246346,0.2460399,0.2457324,0.2454119,0.2450747,0.2447256,0.2443814,0.2440516,0.2437406,0.2434509,0.2431795,0.2429095,0.2426259,0.2423291,0.242017,0.2416848,0.2413364,0.2409749,0.2405899,0.2401754,0.2397311,0.2392637,0.2387914,0.2383305,0.2378941,0.2374922,0.2371292,0.236805,0.2365384,0.2363527,0.2362534,0.2362506,0.2363554,0.2365644,0.23688,0.237315,0.2378789,0.2385921,0.2394871,0.2406166,0.2420357,0.2437766,0.2458507,0.2482711,0.251081,0.2543448,0.2581262,0.2624899,0.2674937,0.2731645,0.2794793,0.2863637,0.2937389,0.3015659,0.309801,0.3183239,0.3269354,0.3354033,0.3435293,0.3511922,0.358348,0.3649727,0.3710369,0.3765297,0.3814486,0.3857901,0.3895502,0.3927358,0.3953768,0.3975079,0.399164,0.4003735,0.4011593,0.4015492,0.4015766,0.401279,0.4006978,0.3998684,0.3988259,0.3976018,0.3962303,0.3947544,0.3932048,0.3916006,0.3899596,0.3882954,0.386626,0.3849634,0.3833138,0.3816792,0.3800506,0.3784144,0.3767784,0.3751569,0.3735382,0.3719168,0.370304,0.3687243,0.3671897,0.3656946,0.3642546,0.3628804,0.3615774,0.3603522,0.3592118,0.3581729,0.3572524,0.3564717,0.3558461,0.3553828,0.355082,0.3549556,0.3550148,0.3552637,0.3557179,0.3563861,0.3572728,0.3583736,0.3596847,0.3612078,0.3629429,0.3648756,0.3669988,0.3692902,0.3717251,0.3743012,0.3770006,0.3797994,0.3826561,0.3855183,0.3883111,0.3909401,0.3933457,0.395502,0.3973877,0.3990105,0.4004157,0.4016425,0.4027297,0.4037107,0.4046187,0.4054734,0.4063,0.4071333,0.4079751,0.4088215,0.4096759,0.4105429,0.4114225,0.4123319,0.413292,0.4142807,0.4152679,0.4162384,0.4172036,0.4181483,0.4190543,0.4199189,0.4207515,0.4215334,0.422256,0.4229153,0.4234948,0.4240035,0.4244476,0.4248259,0.4251356,0.4254121,0.4256892,0.4259726,0.4262702,0.4265823,0.4269124,0.4272526,0.4275766,0.4278556,0.4280438,0.4281093,0.4280561,0.4278983,0.4277034,0.4275425,0.4274146,0.4272757,0.4270981,0.4268738,0.4266346,0.4263627,0.4260162,0.4255737,0.4250128,0.4243681,0.4236777,0.4229402,0.4221627,0.4213647,0.4205253,0.4196603,0.418781,0.4178793,0.4169706,0.4160773,0.4152083,0.4143682,0.4135697,0.4127939,0.4120117,0.4112226,0.4104393,0.4096287,0.4087812,0.4079256,0.4070879,0.4062966,0.4056003,0.4050336,0.4046305,0.4044204,0.4044391,0.4047374,0.4053958,0.4064474,0.4078737,0.4096638,0.4118266,0.4143299,0.4171338,0.4202291,0.4235509,0.4269925,0.4304622,0.4339091,0.437292,0.4406058,0.4439014,0.4471972,0.4504412,0.4535642,0.4565472,0.4593693,0.4619906,0.4643323,0.466372,0.4680973,0.469591,0.4709686,0.4722455,0.4734479,0.4746483,0.4758871,0.4771831,0.4785459,0.4800458,0.4817333,0.483588,0.4854786,0.4872952,0.4890588,0.4907686,0.4923675,0.493658,0.4943717,0.4942657,0.4933066,0.4917315,0.4899899,0.4884648,0.4873025,0.4866041,0.4863105,0.4862448,0.4863544,0.4866094,0.4869455,0.4873682,0.4879412,0.4886483,0.4893869,0.4900804,0.490641,0.4909559,0.4908613,0.4902749,0.4892192,0.4878697,0.4865528,0.4854197,0.484477,0.4836761,0.4829437,0.4822246,0.4814711,0.4807337,0.4800577,0.47945,0.4789321,0.4785009,0.4781798,0.4779858,0.4778854,0.47783,0.4777854,0.4777699,0.4777733,0.4778189,0.4779681,0.4782329,0.4786304,0.4791692,0.4798658,0.4806656,0.4815077,0.4824803,0.4836498,0.4849823,0.4864541,0.4880041,0.4896464,0.4914548,0.493466,0.4956499,0.4978638,0.5001273,0.5025648,0.5052682,0.508189,0.5111817,0.5141997,0.5171881,0.5201472,0.5230845,0.5260281,0.5290344,0.5320836,0.5351681,0.5382913,0.5413331,0.5442306,0.5470048,0.5495365,0.5518071,0.5539965,0.5560936,0.5579758,0.5597109,0.5612575,0.5625921,0.5637827,0.56476,0.5654965,0.5659664,0.5661213,0.5660455,0.5657983,0.5653778
361,93.2099991,14.1300001,85.8700027,40.4099998,31.5699997,23.5699997,73.6600037,201.6300049,30.6700001,41.9199982,3.6600001,15.5900002,15.2200003,1.0382798,1.0418806,1.0448093,1.0472735,1.0492978,1.0509332,1.0523034,1.053499,1.054553,1.0555021,1.0563679,1.0571067,1.0576235,1.0578121,1.0576793,1.0573491,1.0568904,1.0562487,1.0554043,1.0543941,1.0532275,1.0519762,1.0506837,1.0492718,1.0476691,1.0457944,1.0436057,1.0410651,1.0381,1.0346756,1.030854,1.0267861,1.0225012,1.0179957,1.0133224,1.0086139,1.0040172,0.9996129,0.9953257,0.9911314,0.9870287,0.983067,0.9792527,0.9755476,0.9718606,0.9681635,0.9644261,0.9606546,0.9568691,0.9531026,0.9492956,0.9454247,0.9414497,0.937333,0.9330144,0.9284198,0.9235206,0.9182999,0.9128081,0.9071005,0.9012625,0.8954319,0.8897992,0.8845596,0.8798751,0.8758464,0.8724923,0.8697255,0.8673752,0.8652042,0.8629385,0.8602903,0.8570221,0.8529951,0.8481947,0.8427121,0.8367172,0.8304229,0.8240418,0.8177355,0.8115916,0.8056178,0.7997724,0.7939799,0.7881491,0.782198,0.7761031,0.769887,0.7636046,0.757338,0.7512243,0.7454256,0.7401063,0.7354731,0.7316985,0.7289174,0.7272775,0.7268743,0.7277182,0.7297548,0.7328405,0.7367074,0.7410118,0.7453521,0.7493197,0.7525336,0.754681,0.7555591,0.7550873,0.7533115,0.7503929,0.7465631,0.742109,0.7373484,0.7325892,0.7281434,0.7242981,0.721312,0.71943,0.7188902,0.7199243,0.7227626,0.7276042,0.7345952,0.7437963,0.7551659,0.7685359,0.7836112,0.7999622,0.8170311,0.8341643,0.850637,0.8656923,0.8785406,0.8884076,0.8946018,0.8965982,0.8941347,0.8872454,0.8763059,0.8619867,0.8451642,0.8267879,0.8077425,0.7887604,0.7703702,0.7528805,0.7364051,0.7209133,0.7062615,0.6922385,0.6786022,0.6651147,0.6515787,0.6378466,0.6238322,0.6095043,0.5948796,0.5800187,0.5649909,0.5498823,0.5347912,0.5198241,0.5051011,0.4907435,0.4768768,0.4636211,0.4510799,0.4393272,0.4284105,0.4183474,0.4091187,0.4006852,0.3929905,0.3859657,0.3795362,0.3736297,0.3681842,0.3631374,0.3584325,0.3540141,0.3498387,0.3458741,0.3420902,0.3384713,0.3350104,0.3317012,0.3285355,0.3255032,0.3225961,0.3198037,0.3171164,0.3145259,0.3120204,0.3095836,0.3072036,0.3048711,0.3025834,0.3003379,0.2981308,0.2959569,0.2938105,0.2916939,0.2896124,0.287578,0.2856036,0.2836969,0.2818623,0.2801004,0.2784039,0.2767634,0.2751698,0.2736167,0.2720978,0.2706124,0.2691607,0.2677402,0.2663497,0.2649806,0.2636387,0.2623255,0.261037,0.2597712,0.2585301,0.257314,0.2561221,0.2549547,0.2538052,0.252675,0.2515682,0.2504817,0.2494105,0.2483472,0.2473016,0.2462727,0.2452683,0.244285,0.2433082,0.2423385,0.241384,0.2404454,0.2395248,0.2386172,0.2377215,0.2368381,0.2359655,0.235107,0.2342606,0.2334253,0.2325998,0.2317841,0.2309803,0.2301912,0.229413,0.2286412,0.2278731,0.2271075,0.2263438,0.2255851,0.2248303,0.2240784,0.2233291,0.2225848,0.2218451,0.2211072,0.2203725,0.2196432,0.218921,0.2182045,0.2174936,0.2167916,0.2161027,0.2154268,0.2147634,0.2141151,0.2134838,0.2128702,0.2122721,0.2116895,0.2111179,0.2105599,0.2100162,0.2094846,0.2089656,0.2084563,0.2079556,0.2074614,0.2069741,0.2064913,0.2060102,0.205535,0.2050613,0.2045883,0.204115,0.2036415,0.2031686,0.2026986,0.2022275,0.2017596,0.2012952,0.2008341,0.2003781,0.1999267,0.199481,0.1990388,0.1986016,0.198168,0.1977367,0.197305,0.1968734,0.1964398,0.196008,0.195579,0.1951534,0.1947314,0.1943127,0.1938995,0.1934919,0.1930865,0.1926848,0.1922857,0.1918926,0.191504,0.1911228,0.1907507,0.1903828,0.1900179,0.1896562,0.1892988,0.188943,0.1885864,0.1882298,0.1878741,0.1875214,0.187174,0.1868324,0.1864952,0.1861608,0.1858338,0.1855149,0.1852,0.1848902,0.184583,0.1842897,0.1840051,0.1837157,0.1834044,0.183061,0.1826908,0.1823076,0.1812712,0.1810059,0.1807493,0.180508,0.1802885,0.1800811,0.1798719,0.179666,0.179488,0.1793417,0.1792123,0.1790972,0.1790019,0.1789316,0.1788971,0.1788998,0.1789284,0.1789848,0.1790711,0.1791753,0.1792876,0.1794104,0.1795566,0.1797344,0.1799373,0.1801644,0.1804227,0.1807172,0.1810446,0.1813947,0.1817594,0.1821305,0.1824909,0.1828235,0.1831297,0.1834161,0.1836826,0.1839376,0.1842017,0.18449,0.1847925,0.1850873,0.1853564,0.1855799,0.1857426,0.1858386,0.1858741,0.1858662,0.1858237,0.1857537,0.1856636,0.1855581,0.1854367,0.1852933,0.1851169,0.1848899,0.1846087,0.1842784,0.1838997,0.1834754,0.1830107,0.1825178,0.1820119,0.1815117,0.1810336,0.1805856,0.1801689,0.1797785,0.179407,0.1790572,0.1787297,0.1784163,0.1781216,0.177851,0.177598,0.177358,0.1771303,0.1769175,0.1767288,0.1765677,0.1764294,0.1763109,0.1762047,0.176102,0.1760031,0.1759101,0.1758168,0.1757156,0.1756005,0.1754734,0.175332,0.17518,0.17503,0.1748899,0.1747595,0.1746328,0.1745114,0.1743994,0.1742957,0.1742032,0.1741256,0.1740659,0.1740224,0.1739955,0.1739883,0.1739999,0.1740323,0.174087,0.174162,0.1742601,0.174386,0.174545,0.1747407,0.1749731,0.175242,0.1755417,0.1758786,0.1762576,0.1766773,0.1771415,0.177654,0.1782185,0.178833,0.1794883,0.1801754,0.1808837,0.1816003,0.182322,0.1830553,0.1837963,0.1845292,0.1852438,0.1859467,0.1866449,0.1873325,0.1880042,0.1886611,0.1893193,0.1900111,0.1907671,0.1916052,0.1925351,0.1935636,0.1946902,0.1959096,0.1972148,0.1985983,0.2000603,0.2016268,0.2033373,0.2052207,0.2073,0.2095878,0.2120727,0.2147159,0.2174527,0.2202095,0.2229233,0.2255579,0.2281074,0.2305898,0.2330183,0.2353856,0.2376727,0.2398573,0.2419172,0.2438371,0.2456048,0.2472156,0.2486784,0.2500019,0.2511958,0.2522685,0.2532287,0.2540946,0.2548873,0.2556252,0.2563221,0.2569855,0.2576126,0.2581974,0.2587404,0.2592454,0.2597059,0.2601081,0.2604473,0.2607304,0.2609694,0.2611798,0.2613797,0.2615802,0.2617763,0.2619592,0.2621226,0.2622608,0.2623692,0.2624387,0.2624638,0.2624395,0.2623586,0.2622208,0.2620277,0.261784,0.2614988,0.2611771,0.2608224,0.2604433,0.2600479,0.259647,0.2592497,0.2588631,0.2584969,0.258155,0.2578381,0.2575526,0.2573058,0.2570956,0.2569139,0.2567583,0.2566271,0.2565025,0.2563648,0.2562095,0.2560462,0.255888,0.2557395,0.2556024,0.2554847,0.2554029,0.2553669,0.255373,0.2554164,0.2554984,0.2556041,0.2557091,0.2558067,0.2558914,0.2559497,0.2559773,0.2559708,0.2559227,0.2558275,0.2556831,0.2554846,0.2552245,0.2549113,0.2545535,0.2541594,0.2537396,0.2532921,0.2528152,0.252326,0.2518423,0.2513748,0.250927,0.2504936,0.2500688,0.2496465,0.2492281,0.2488154,0.2483997,0.2479849,0.2475818,0.2472007,0.2468424,0.2464965,0.2461674,0.2458608,0.2455772,0.2453225,0.2451079,0.2449366,0.2448085,0.2447245,0.2446938,0.2447303,0.2448442,0.24505,0.2453586,0.2457607,0.2462348,0.2467709,0.2473761,0.2480592,0.2488268,0.2496878,0.2506525,0.2517209,0.2528786,0.2541019,0.255379,0.2567086,0.2580757,0.2594559,0.260814,0.2621122,0.2633352,0.2645015,0.2656343,0.266735,0.267792,0.268798,0.2697461,0.2706394,0.2715077,0.2723852,0.2732763,0.2741681,0.2750449,0.2758934,0.2767164,0.2775083,0.2782283,0.2787935,0.2790937,0.2790449,0.2786467,0.2779831,0.277198,0.2764404,0.2757977,0.2752929,0.2749201,0.2746515,0.2744631,0.2743478,0.2742935,0.2742829,0.2742967,0.2743058,0.2742632,0.2741119,0.2738029,0.2733301,0.2727339,0.2720813,0.2714301,0.2708104,0.2702316,0.2697073,0.2692478,0.2688394,0.268472,0.2681396,0.2678298,0.2675344,0.2672508,0.2669683,0.2666737,0.266361,0.2660349,0.2657098,0.2653916,0.2650871,0.2648048,0.2645433,0.2642846,0.2640127,0.2637253,0.2634199,0.2630975,0.262764,0.262413,0.2620292,0.2616141,0.2611752,0.2607213,0.2602645,0.259813,0.2593777,0.2589669,0.2585812,0.2582199,0.2579019,0.2576483,0.2574649,0.2573632,0.2573549,0.2574409,0.2576241,0.2579097,0.2583037,0.2588294,0.2595122,0.2603828,0.2614838,0.2628594,0.2645372,0.2665266,0.2688487,0.2715538,0.2747155,0.2784114,0.2826989,0.287608,0.2931332,0.2992183,0.3058038,0.3128599,0.3203321,0.3280956,0.3359614,0.3437063,0.3511354,0.3581255,0.3646254,0.3706045,0.37604,0.3809307,0.3852764,0.3890764,0.3923288,0.3950413,0.3972417,0.3989576,0.4002225,0.4010698,0.4015251,0.4016171,0.4013837,0.4008663,0.4000999,0.3991128,0.3979431,0.3966221,0.3951746,0.3936365,0.3920434,0.3904192,0.3887783,0.3871283,0.385481,0.3838457,0.3822295,0.380636,0.3790592,0.377489,0.3759287,0.3743874,0.3728623,0.3713583,0.3698799,0.3684378,0.3670441,0.3657033,0.3644398,0.3632644,0.3621743,0.3611729,0.3602706,0.3594823,0.3588141,0.3582767,0.3578812,0.3576356,0.3575451,0.3576272,0.3578893,0.3583241,0.3589393,0.3597508,0.3607744,0.3620032,0.3634268,0.3650457,0.3668588,0.3688533,0.3710287,0.3733676,0.3758491,0.3784722,0.3812102,0.3840281,0.3868797,0.3897153,0.3924678,0.3950461,0.3973884,0.399469,0.401272,0.4028091,0.4041224,0.4052416,0.4061945,0.4070155,0.40775,0.4084309,0.4090944,0.409775,0.410467,0.4111685,0.4118908,0.4126423,0.413419,0.4142227,0.415065,0.4159351,0.4168071,0.4176608,0.4185077,0.4193354,0.4201331,0.4209048,0.4216511,0.4223417,0.4229761,0.4235633,0.4240837,0.4245333,0.4249141,0.4252327,0.4254857,0.425698,0.4258968,0.4260919,0.4262978,0.4265223,0.4267792,0.4270626,0.4273379,0.4275694,0.4277156,0.4277592,0.4277122,0.4275745,0.427385,0.4272013,0.4270397,0.4268849,0.4267156,0.4265047,0.4262615,0.4259674,0.4255986,0.4251485,0.4245944,0.4239638,0.4232904,0.422576,0.4218324,0.4210805,0.4203049,0.4195193,0.4187217,0.4179027,0.4170865,0.4163035,0.4155644,0.414868,0.4142303,0.4136479,0.4130915,0.4125293,0.4119305,0.4112186,0.4103544,0.409371,0.4083283,0.4072987,0.4063731,0.4056162,0.405063,0.4047301,0.4046456,0.4048443,0.4053766,0.4062709,0.4075341,0.4091679,0.4111696,0.4134838,0.4160594,0.4188988,0.4219619,0.4251633,0.42842,0.4316892,0.4349439,0.438171,0.4413981,0.4446487,0.4478812,0.4510025,0.4539584,0.4567053,0.4592074,0.4614316,0.4634008,0.4650914,0.4665438,0.4678824,0.4691781,0.470477,0.4718149,0.4731921,0.4746131,0.4760876,0.4776882,0.479466,0.4814086,0.4833833,0.4852664,0.4870857,0.4888603,0.4905395,0.4919158,0.4926874,0.4925671,0.4915081,0.4897748,0.4878692,0.4862222,0.4849847,0.4842277,0.4838987,0.4838588,0.4840501,0.4844011,0.484827,0.4853435,0.4860157,0.4868228,0.4876901,0.4885733,0.4893754,0.4899428,0.4900641,0.4896228,0.4886274,0.4872654,0.4859115,0.4847736,0.4838758,0.4831437,0.4824793,0.4818402,0.4811824,0.4805253,0.4798976,0.4793219,0.4788399,0.4784455,0.4781395,0.4779235,0.4777607,0.4776042,0.4774393,0.4773116,0.4772256,0.4772162,0.4773447,0.4775933,0.4779526,0.4784293,0.4790657,0.4798493,0.4807482,0.4818263,0.4830869,0.4844642,0.4859504,0.4875059,0.4891556,0.4909491,0.49289,0.4949878,0.4971868,0.4995354,0.5020729,0.5047697,0.5075675,0.5104108,0.5133163,0.5162343,0.5191576,0.5220838,0.5250075,0.5279376,0.5308443,0.5337727,0.53679,0.5397684,0.5426169,0.5453765,0.5479449,0.5502518,0.5523972,0.5543768,0.5561703,0.5579107,0.5595123,0.5608774,0.5620866,0.5631102,0.5638806,0.5643275,0.5644318,0.5643474,0.5641702,0.563845
362,93.0699997,13.0799999,86.9199982,38.8600006,32.9700012,27.1100006,78.5199966,184.6000061,29.4500008,37.4399986,4.29,16.2700005,15.8599997,1.0250102,1.0303319,1.0349643,1.0389584,1.0422888,1.045028,1.0473113,1.0492699,1.0509855,1.0525103,1.0538932,1.0551062,1.0560604,1.056721,1.0570997,1.0571513,1.0568265,1.0561668,1.0553161,1.0543773,1.0533191,1.0521535,1.0509237,1.049589,1.0481125,1.0464321,1.0444809,1.0421851,1.0394913,1.0363847,1.032876,1.0290341,1.0248581,1.0203733,1.0156398,1.0107325,1.005743,1.0007472,0.9956797,0.9905163,0.9852584,0.9799724,0.9746906,0.9693946,0.9640096,0.9585501,0.9530435,0.9475227,0.942006,0.9365327,0.9310657,0.9256142,0.9201799,0.9147605,0.9093153,0.9037727,0.8980873,0.8922184,0.8861991,0.8800745,0.8739163,0.8678311,0.8619623,0.8564636,0.8514753,0.8471012,0.8433952,0.8403331,0.837809,0.8356423,0.8336083,0.8314555,0.8289526,0.8259193,0.8222654,0.8180096,0.813275,0.8082501,0.8031456,0.7981487,0.7933899,0.7889125,0.7846862,0.7806334,0.7766585,0.7726652,0.7685928,0.7644113,0.7601188,0.7557429,0.7513683,0.7471006,0.7430471,0.7393709,0.7362222,0.7337268,0.7320343,0.7312585,0.7314561,0.7326533,0.734816,0.7377982,0.7413766,0.7452545,0.7490991,0.7525701,0.755357,0.7572267,0.7580453,0.7577873,0.7565289,0.7544164,0.7516618,0.7485248,0.7452723,0.7421851,0.7395257,0.7375338,0.7364377,0.7364551,0.737789,0.7406352,0.7451641,0.7515157,0.7597756,0.7699671,0.7820298,0.7958124,0.8110532,0.8273662,0.8442413,0.8610359,0.8769975,0.8912653,0.9029291,0.9111166,0.9151037,0.9144504,0.9090732,0.8993145,0.8858972,0.8698198,0.8521975,0.8340994,0.8164356,0.799886,0.7848756,0.771596,0.7600553,0.7501127,0.7415237,0.7339724,0.7270982,0.7205299,0.7138995,0.7068685,0.6991423,0.6904864,0.6807461,0.6698282,0.6577152,0.6444595,0.6301706,0.6150077,0.5991559,0.5828218,0.5662234,0.549579,0.5330923,0.516951,0.5013172,0.4863114,0.4720173,0.4584774,0.4456954,0.433645,0.4222799,0.4115452,0.401374,0.3916994,0.3824532,0.3735796,0.3650382,0.3567995,0.3488588,0.3412296,0.3339275,0.3269641,0.3203421,0.3140607,0.3081115,0.3024828,0.2971606,0.2921243,0.2873461,0.2827993,0.278459,0.2743073,0.2703277,0.2665035,0.262815,0.2592415,0.2557742,0.2524127,0.2491659,0.2460426,0.2430447,0.240171,0.2374167,0.2347699,0.2322177,0.2297485,0.2273537,0.225025,0.222761,0.2205609,0.2184202,0.2163361,0.2142984,0.2123114,0.2103752,0.2084846,0.2066366,0.2048319,0.2030692,0.2013467,0.1996649,0.1980167,0.1964028,0.1948269,0.1932859,0.1917751,0.1902868,0.1888293,0.1874008,0.1860085,0.1846493,0.1833091,0.181988,0.180694,0.1794286,0.1781945,0.1769871,0.1758048,0.1746476,0.173515,0.1724104,0.171331,0.1702752,0.1692415,0.1682293,0.1672397,0.166274,0.165327,0.164392,0.1634652,0.1625437,0.1616252,0.1607114,0.1598,0.15889,0.157981,0.1570752,0.1561719,0.1552681,0.1543647,0.1534631,0.1525657,0.1516728,0.150787,0.149914,0.14906,0.1482269,0.147416,0.1466313,0.145876,0.1451511,0.1444549,0.1437869,0.1431419,0.1425221,0.1419276,0.1413563,0.1408083,0.1402801,0.1397691,0.1392709,0.1387835,0.1383025,0.137824,0.137351,0.1368787,0.1364067,0.1359344,0.1354615,0.1349888,0.1345188,0.1340473,0.133579,0.1331148,0.1326551,0.1322019,0.1317541,0.1313127,0.1308757,0.1304445,0.1300167,0.12959,0.1291606,0.1287288,0.128292,0.1278542,0.1274172,0.1269818,0.1265488,0.1261189,0.1256941,0.1252744,0.1248563,0.1244422,0.1240321,0.1236291,0.1232304,0.1228378,0.1224531,0.1220723,0.1216949,0.1213212,0.1209529,0.120588,0.1202239,0.1198603,0.1194977,0.1191389,0.1187872,0.1184441,0.1181087,0.1177782,0.1174561,0.1171431,0.1168369,0.1165394,0.1162467,0.1159687,0.1157002,0.1154293,0.1151413,0.1148278,0.1144951,0.1141563,0.1138388,0.113626,0.1134251,0.1132414,0.1130873,0.1129573,0.112835,0.1127236,0.1126481,0.1126136,0.1126085,0.1126326,0.1126932,0.1127979,0.1129626,0.1131963,0.1134897,0.1138337,0.1142208,0.1146375,0.1150757,0.1155344,0.1160178,0.1165307,0.1170705,0.1176389,0.1182464,0.1189048,0.1196145,0.1203656,0.121145,0.1219343,0.1227063,0.1234352,0.1241192,0.124771,0.1253987,0.1260132,0.1266367,0.1272838,0.1279416,0.1285805,0.1291704,0.1296844,0.1301008,0.1304055,0.1306045,0.1307212,0.1307715,0.130771,0.1307354,0.1306762,0.1305955,0.1304821,0.1303174,0.1300793,0.1297594,0.1293577,0.1288685,0.1282925,0.1276427,0.126945,0.1262263,0.1255121,0.1248231,0.1241729,0.1235686,0.1230067,0.1224771,0.1219793,0.1215136,0.1210751,0.1206666,0.1202905,0.1199446,0.1196262,0.1193311,0.1190626,0.1188355,0.1186544,0.1185067,0.1183824,0.1182771,0.1181838,0.1180966,0.1180113,0.1179192,0.1178129,0.117686,0.117538,0.1173649,0.117172,0.1169757,0.1167892,0.1166164,0.1164523,0.1162985,0.1161629,0.1160498,0.1159627,0.1159017,0.1158679,0.1158617,0.1158884,0.1159549,0.1160599,0.1162017,0.116381,0.1165988,0.1168574,0.1171591,0.1175111,0.117921,0.1183922,0.1189276,0.1195227,0.1201779,0.1208923,0.1216688,0.1225183,0.123442,0.1244349,0.1254894,0.1265934,0.1277339,0.1288977,0.1300718,0.1312504,0.1324362,0.1336264,0.1348073,0.1359644,0.1370957,0.1381957,0.1392504,0.1402531,0.1412059,0.1421308,0.1430723,0.1440798,0.1451993,0.1464669,0.1479039,0.1495148,0.1512892,0.1532115,0.1552676,0.1574543,0.1597928,0.1623141,0.1650364,0.1679704,0.1711115,0.1744346,0.1779053,0.1814816,0.1851165,0.1887641,0.1923826,0.1959389,0.1994095,0.2027698,0.2059887,0.2090335,0.2118794,0.2145137,0.2169361,0.2191499,0.2211609,0.2229833,0.2246323,0.2261282,0.2274891,0.2287308,0.2298732,0.230936,0.2319396,0.2329034,0.2338381,0.2347372,0.2355887,0.2363885,0.2371369,0.2378272,0.238449,0.2389995,0.2394865,0.23992,0.240308,0.2406623,0.2409954,0.2413124,0.2416132,0.2418909,0.2421353,0.2423366,0.2424845,0.2425771,0.2426072,0.2425615,0.2424355,0.2422287,0.2419459,0.2415967,0.2411885,0.2407274,0.2402245,0.2396955,0.2391599,0.2386284,0.2381059,0.2376026,0.2371263,0.2366817,0.2362755,0.2359159,0.235601,0.2353164,0.2350532,0.23481,0.2345735,0.2343275,0.2340691,0.2338045,0.2335426,0.2332914,0.2330611,0.2328606,0.2327037,0.232606,0.2325656,0.2325696,0.2326113,0.2326752,0.2327428,0.2328119,0.2328772,0.2329227,0.232942,0.2329301,0.2328724,0.2327551,0.2325735,0.2323254,0.2320073,0.2316268,0.2311906,0.2307087,0.2301924,0.229643,0.2290622,0.2284656,0.2278733,0.2273001,0.2267503,0.2262201,0.2257057,0.2252041,0.2247193,0.2242489,0.2237802,0.2233134,0.222854,0.2224101,0.2219841,0.2215727,0.2211883,0.2208381,0.2205241,0.2202568,0.2200474,0.2198954,0.2197964,0.2197506,0.2197689,0.2198668,0.2200571,0.2203566,0.2207785,0.2213141,0.2219366,0.2226283,0.2233896,0.2242311,0.2251686,0.226212,0.2273622,0.228613,0.2299547,0.2313732,0.2328617,0.2344159,0.2360129,0.2376179,0.2391868,0.2406752,0.2420661,0.2433774,0.2446332,0.2458392,0.2469819,0.2480512,0.2490455,0.2499794,0.2508959,0.251842,0.2528315,0.2538554,0.2548943,0.2559274,0.256949,0.2579458,0.2588712,0.259627,0.2600798,0.2601238,0.2597481,0.259048,0.2581921,0.257353,0.256636,0.2560701,0.2556474,0.2553382,0.2551183,0.2549821,0.2549202,0.2549214,0.2549682,0.2550234,0.2550263,0.2549081,0.2546122,0.2541253,0.2534867,0.2527721,0.2520514,0.2513668,0.2507321,0.2501559,0.2496437,0.2491836,0.2487668,0.248386,0.2480252,0.2476743,0.2473326,0.2469927,0.2466413,0.2462723,0.2458932,0.2455205,0.2451608,0.2448185,0.2444956,0.2441887,0.2438844,0.2435714,0.2432483,0.2429101,0.2425497,0.2421674,0.2417632,0.2413296,0.2408657,0.240375,0.2398663,0.2393533,0.2388452,0.2383535,0.2378909,0.2374651,0.2370841,0.2367691,0.2365362,0.2363934,0.2363619,0.2364566,0.2366734,0.2370139,0.237488,0.2381058,0.2388954,0.2398986,0.2411721,0.2427747,0.2447459,0.2471014,0.249854,0.2530479,0.2567534,0.2610406,0.2659756,0.2716128,0.2779716,0.2850101,0.2926312,0.3007492,0.3093165,0.3182669,0.3274656,0.3367085,0.3457547,0.3543983,0.3625194,0.3700767,0.3770439,0.3833953,0.3891315,0.3942605,0.3987793,0.4026777,0.4059621,0.4086659,0.4108284,0.4124863,0.4136679,0.4143987,0.4147126,0.4146467,0.4142387,0.4135313,0.4125623,0.4113668,0.4099765,0.4084225,0.4067388,0.4049541,0.4031005,0.4012126,0.3993041,0.3973802,0.3954484,0.3935195,0.3915969,0.3896759,0.3877506,0.3858236,0.3839014,0.3819881,0.3801002,0.3782421,0.3764111,0.3746133,0.3728617,0.3711835,0.3695819,0.3680555,0.3666163,0.3652743,0.3640397,0.3629225,0.3619432,0.3611213,0.3604724,0.3600045,0.3597247,0.3596343,0.3597329,0.3600333,0.360549,0.3612984,0.3622853,0.3635019,0.3649381,0.366581,0.3684127,0.3704349,0.3726303,0.3749743,0.3774645,0.3800759,0.3827752,0.3855085,0.3882196,0.3908489,0.3933173,0.3955678,0.3975695,0.3992977,0.4007553,0.4019837,0.4030268,0.4039361,0.4047546,0.4055113,0.4062202,0.4069028,0.407581,0.4082478,0.4089099,0.4095843,0.4102786,0.4109858,0.4117101,0.4124724,0.4132661,0.4140654,0.4148481,0.4156243,0.4163839,0.417111,0.4177984,0.4184502,0.4190525,0.4196032,0.4200937,0.4205026,0.4208381,0.421111,0.4213302,0.4214961,0.4216368,0.4217733,0.4219083,0.4220605,0.422246,0.4224799,0.4227523,0.4230142,0.4232087,0.4232977,0.4232849,0.4231875,0.4230042,0.4227862,0.4226016,0.4224571,0.4223228,0.4221798,0.4220034,0.4217963,0.42154,0.4212086,0.4207806,0.4202214,0.4195598,0.4188412,0.418078,0.4172781,0.41645,0.4155704,0.414658,0.4137241,0.4127557,0.4117631,0.4107775,0.4098158,0.4088726,0.4079553,0.4070557,0.4061545,0.4052552,0.4043711,0.4034656,0.4025285,0.4015872,0.4006638,0.3997878,0.3990121,0.3983792,0.3979312,0.3976931,0.3976903,0.397968,0.3985955,0.3996003,0.4009766,0.4027322,0.4048862,0.4074077,0.4102564,0.4134195,0.4168301,0.4203934,0.4240362,0.4277124,0.4313696,0.434974,0.4385483,0.4421045,0.4455939,0.4489482,0.4521502,0.4551677,0.457944,0.4604025,0.4625266,0.4642919,0.4657715,0.4671105,0.4683748,0.4696031,0.4708445,0.472129,0.4734826,0.4749291,0.4765573,0.4784249,0.4805049,0.482656,0.4847704,0.4868786,0.4889766,0.4909997,0.4927402,0.4938636,0.493999,0.4930308,0.4912326,0.4891701,0.4873537,0.4860004,0.4852062,0.4848969,0.4848969,0.4851424,0.4855665,0.4860631,0.4866199,0.4872897,0.4880556,0.4888677,0.4897288,0.4905688,0.4911876,0.4912897,0.4907227,0.4895321,0.4879661,0.4864367,0.4851671,0.4841905,0.4834289,0.4827576,0.4820918,0.4813657,0.4806231,0.4799574,0.4794348,0.4790822,0.4788725,0.478784,0.4787646,0.478738,0.4786698,0.4785788,0.4785445,0.4785847,0.4787093,0.4789507,0.4793046,0.4797912,0.4804183,0.4812098,0.4821354,0.4831412,0.4842764,0.4855653,0.4869873,0.488557,0.4902257,0.4920098,0.4939594,0.4960653,0.4983065,0.500632,0.5031145,0.5057892,0.5086285,0.5115838,0.5145879,0.5176554,0.5207422,0.5238128,0.5268374,0.5298531,0.5329339,0.5360156,0.5390348,0.5420425,0.5450405,0.548016,0.5509201,0.5535692,0.5559341,0.5581753,0.5602819,0.56218,0.5639629,0.5655614,0.5669157,0.5680876,0.5690053,0.5696467,0.5700313,0.5701504,0.570085,0.5698838,0.5695122
