id_lab,id,tax_name,functional_group,dm_percentage,ash_dm,om_percentage,pc_percentage_dm,adf_percentage_dm,ndf_percentage_dm,net_gas_8h_ml,net_gas_24h_ml,gas_ml_g_dm_incubated_24h,tddm,part_fact,ch4_percentage_in_gas_8h,ch4_percentage_in_gas_24h,ch4_ml_g_dm_incubated_24h,methane_intensity,ch4_ml_g_ndf_digested_24h,400,400.5,401,401.5,402,402.5,403,403.5,404,404.5,405,405.5,406,406.5,407,407.5,408,408.5,409,409.5,410,410.5,411,411.5,412,412.5,413,413.5,414,414.5,415,415.5,416,416.5,417,417.5,418,418.5,419,419.5,420,420.5,421,421.5,422,422.5,423,423.5,424,424.5,425,425.5,426,426.5,427,427.5,428,428.5,429,429.5,430,430.5,431,431.5,432,432.5,433,433.5,434,434.5,435,435.5,436,436.5,437,437.5,438,438.5,439,439.5,440,440.5,441,441.5,442,442.5,443,443.5,444,444.5,445,445.5,446,446.5,447,447.5,448,448.5,449,449.5,450,450.5,451,451.5,452,452.5,453,453.5,454,454.5,455,455.5,456,456.5,457,457.5,458,458.5,459,459.5,460,460.5,461,461.5,462,462.5,463,463.5,464,464.5,465,465.5,466,466.5,467,467.5,468,468.5,469,469.5,470,470.5,471,471.5,472,472.5,473,473.5,474,474.5,475,475.5,476,476.5,477,477.5,478,478.5,479,479.5,480,480.5,481,481.5,482,482.5,483,483.5,484,484.5,485,485.5,486,486.5,487,487.5,488,488.5,489,489.5,490,490.5,491,491.5,492,492.5,493,493.5,494,494.5,495,495.5,496,496.5,497,497.5,498,498.5,499,499.5,500,500.5,501,501.5,502,502.5,503,503.5,504,504.5,505,505.5,506,506.5,507,507.5,508,508.5,509,509.5,510,510.5,511,511.5,512,512.5,513,513.5,514,514.5,515,515.5,516,516.5,517,517.5,518,518.5,519,519.5,520,520.5,521,521.5,522,522.5,523,523.5,524,524.5,525,525.5,526,526.5,527,527.5,528,528.5,529,529.5,530,530.5,531,531.5,532,532.5,533,533.5,534,534.5,535,535.5,536,536.5,537,537.5,538,538.5,539,539.5,540,540.5,541,541.5,542,542.5,543,543.5,544,544.5,545,545.5,546,546.5,547,547.5,548,548.5,549,549.5,550,550.5,551,551.5,552,552.5,553,553.5,554,554.5,555,555.5,556,556.5,557,557.5,558,558.5,559,559.5,560,560.5,561,561.5,562,562.5,563,563.5,564,564.5,565,565.5,566,566.5,567,567.5,568,568.5,569,569.5,570,570.5,571,571.5,572,572.5,573,573.5,574,574.5,575,575.5,576,576.5,577,577.5,578,578.5,579,579.5,580,580.5,581,581.5,582,582.5,583,583.5,584,584.5,585,585.5,586,586.5,587,587.5,588,588.5,589,589.5,590,590.5,591,591.5,592,592.5,593,593.5,594,594.5,595,595.5,596,596.5,597,597.5,598,598.5,599,599.5,600,600.5,601,601.5,602,602.5,603,603.5,604,604.5,605,605.5,606,606.5,607,607.5,608,608.5,609,609.5,610,610.5,611,611.5,612,612.5,613,613.5,614,614.5,615,615.5,616,616.5,617,617.5,618,618.5,619,619.5,620,620.5,621,621.5,622,622.5,623,623.5,624,624.5,625,625.5,626,626.5,627,627.5,628,628.5,629,629.5,630,630.5,631,631.5,632,632.5,633,633.5,634,634.5,635,635.5,636,636.5,637,637.5,638,638.5,639,639.5,640,640.5,641,641.5,642,642.5,643,643.5,644,644.5,645,645.5,646,646.5,647,647.5,648,648.5,649,649.5,650,650.5,651,651.5,652,652.5,653,653.5,654,654.5,655,655.5,656,656.5,657,657.5,658,658.5,659,659.5,660,660.5,661,661.5,662,662.5,663,663.5,664,664.5,665,665.5,666,666.5,667,667.5,668,668.5,669,669.5,670,670.5,671,671.5,672,672.5,673,673.5,674,674.5,675,675.5,676,676.5,677,677.5,678,678.5,679,679.5,680,680.5,681,681.5,682,682.5,683,683.5,684,684.5,685,685.5,686,686.5,687,687.5,688,688.5,689,689.5,690,690.5,691,691.5,692,692.5,693,693.5,694,694.5,695,695.5,696,696.5,697,697.5,698,698.5,699,699.5,700,700.5,701,701.5,702,702.5,703,703.5,704,704.5,705,705.5,706,706.5,707,707.5,708,708.5,709,709.5,710,710.5,711,711.5,712,712.5,713,713.5,714,714.5,715,715.5,716,716.5,717,717.5,718,718.5,719,719.5,720,720.5,721,721.5,722,722.5,723,723.5,724,724.5,725,725.5,726,726.5,727,727.5,728,728.5,729,729.5,730,730.5,731,731.5,732,732.5,733,733.5,734,734.5,735,735.5,736,736.5,737,737.5,738,738.5,739,739.5,740,740.5,741,741.5,742,742.5,743,743.5,744,744.5,745,745.5,746,746.5,747,747.5,748,748.5,749,749.5,750,750.5,751,751.5,752,752.5,753,753.5,754,754.5,755,755.5,756,756.5,757,757.5,758,758.5,759,759.5,760,760.5,761,761.5,762,762.5,763,763.5,764,764.5,765,765.5,766,766.5,767,767.5,768,768.5,769,769.5,770,770.5,771,771.5,772,772.5,773,773.5,774,774.5,775,775.5,776,776.5,777,777.5,778,778.5,779,779.5,780,780.5,781,781.5,782,782.5,783,783.5,784,784.5,785,785.5,786,786.5,787,787.5,788,788.5,789,789.5,790,790.5,791,791.5,792,792.5,793,793.5,794,794.5,795,795.5,796,796.5,797,797.5,798,798.5,799,799.5,800,800.5,801,801.5,802,802.5,803,803.5,804,804.5,805,805.5,806,806.5,807,807.5,808,808.5,809,809.5,810,810.5,811,811.5,812,812.5,813,813.5,814,814.5,815,815.5,816,816.5,817,817.5,818,818.5,819,819.5,820,820.5,821,821.5,822,822.5,823,823.5,824,824.5,825,825.5,826,826.5,827,827.5,828,828.5,829,829.5,830,830.5,831,831.5,832,832.5,833,833.5,834,834.5,835,835.5,836,836.5,837,837.5,838,838.5,839,839.5,840,840.5,841,841.5,842,842.5,843,843.5,844,844.5,845,845.5,846,846.5,847,847.5,848,848.5,849,849.5,850,850.5,851,851.5,852,852.5,853,853.5,854,854.5,855,855.5,856,856.5,857,857.5,858,858.5,859,859.5,860,860.5,861,861.5,862,862.5,863,863.5,864,864.5,865,865.5,866,866.5,867,867.5,868,868.5,869,869.5,870,870.5,871,871.5,872,872.5,873,873.5,874,874.5,875,875.5,876,876.5,877,877.5,878,878.5,879,879.5,880,880.5,881,881.5,882,882.5,883,883.5,884,884.5,885,885.5,886,886.5,887,887.5,888,888.5,889,889.5,890,890.5,891,891.5,892,892.5,893,893.5,894,894.5,895,895.5,896,896.5,897,897.5,898,898.5,899,899.5,900,900.5,901,901.5,902,902.5,903,903.5,904,904.5,905,905.5,906,906.5,907,907.5,908,908.5,909,909.5,910,910.5,911,911.5,912,912.5,913,913.5,914,914.5,915,915.5,916,916.5,917,917.5,918,918.5,919,919.5,920,920.5,921,921.5,922,922.5,923,923.5,924,924.5,925,925.5,926,926.5,927,927.5,928,928.5,929,929.5,930,930.5,931,931.5,932,932.5,933,933.5,934,934.5,935,935.5,936,936.5,937,937.5,938,938.5,939,939.5,940,940.5,941,941.5,942,942.5,943,943.5,944,944.5,945,945.5,946,946.5,947,947.5,948,948.5,949,949.5,950,950.5,951,951.5,952,952.5,953,953.5,954,954.5,955,955.5,956,956.5,957,957.5,958,958.5,959,959.5,960,960.5,961,961.5,962,962.5,963,963.5,964,964.5,965,965.5,966,966.5,967,967.5,968,968.5,969,969.5,970,970.5,971,971.5,972,972.5,973,973.5,974,974.5,975,975.5,976,976.5,977,977.5,978,978.5,979,979.5,980,980.5,981,981.5,982,982.5,983,983.5,984,984.5,985,985.5,986,986.5,987,987.5,988,988.5,989,989.5,990,990.5,991,991.5,992,992.5,993,993.5,994,994.5,995,995.5,996,996.5,997,997.5,998,998.5,999,999.5,1000,1000.5,1001,1001.5,1002,1002.5,1003,1003.5,1004,1004.5,1005,1005.5,1006,1006.5,1007,1007.5,1008,1008.5,1009,1009.5,1010,1010.5,1011,1011.5,1012,1012.5,1013,1013.5,1014,1014.5,1015,1015.5,1016,1016.5,1017,1017.5,1018,1018.5,1019,1019.5,1020,1020.5,1021,1021.5,1022,1022.5,1023,1023.5,1024,1024.5,1025,1025.5,1026,1026.5,1027,1027.5,1028,1028.5,1029,1029.5,1030,1030.5,1031,1031.5,1032,1032.5,1033,1033.5,1034,1034.5,1035,1035.5,1036,1036.5,1037,1037.5,1038,1038.5,1039,1039.5,1040,1040.5,1041,1041.5,1042,1042.5,1043,1043.5,1044,1044.5,1045,1045.5,1046,1046.5,1047,1047.5,1048,1048.5,1049,1049.5,1050,1050.5,1051,1051.5,1052,1052.5,1053,1053.5,1054,1054.5,1055,1055.5,1056,1056.5,1057,1057.5,1058,1058.5,1059,1059.5,1060,1060.5,1061,1061.5,1062,1062.5,1063,1063.5,1064,1064.5,1065,1065.5,1066,1066.5,1067,1067.5,1068,1068.5,1069,1069.5,1070,1070.5,1071,1071.5,1072,1072.5,1073,1073.5,1074,1074.5,1075,1075.5,1076,1076.5,1077,1077.5,1078,1078.5,1079,1079.5,1080,1080.5,1081,1081.5,1082,1082.5,1083,1083.5,1084,1084.5,1085,1085.5,1086,1086.5,1087,1087.5,1088,1088.5,1089,1089.5,1090,1090.5,1091,1091.5,1092,1092.5,1093,1093.5,1094,1094.5,1095,1095.5,1096,1096.5,1097,1097.5,1098,1098.5,1099,1099.5,1100,1100.5,1101,1101.5,1102,1102.5,1103,1103.5,1104,1104.5,1105,1105.5,1106,1106.5,1107,1107.5,1108,1108.5,1109,1109.5,1110,1110.5,1111,1111.5,1112,1112.5,1113,1113.5,1114,1114.5,1115,1115.5,1116,1116.5,1117,1117.5,1118,1118.5,1119,1119.5,1120,1120.5,1121,1121.5,1122,1122.5,1123,1123.5,1124,1124.5,1125,1125.5,1126,1126.5,1127,1127.5,1128,1128.5,1129,1129.5,1130,1130.5,1131,1131.5,1132,1132.5,1133,1133.5,1134,1134.5,1135,1135.5,1136,1136.5,1137,1137.5,1138,1138.5,1139,1139.5,1140,1140.5,1141,1141.5,1142,1142.5,1143,1143.5,1144,1144.5,1145,1145.5,1146,1146.5,1147,1147.5,1148,1148.5,1149,1149.5,1150,1150.5,1151,1151.5,1152,1152.5,1153,1153.5,1154,1154.5,1155,1155.5,1156,1156.5,1157,1157.5,1158,1158.5,1159,1159.5,1160,1160.5,1161,1161.5,1162,1162.5,1163,1163.5,1164,1164.5,1165,1165.5,1166,1166.5,1167,1167.5,1168,1168.5,1169,1169.5,1170,1170.5,1171,1171.5,1172,1172.5,1173,1173.5,1174,1174.5,1175,1175.5,1176,1176.5,1177,1177.5,1178,1178.5,1179,1179.5,1180,1180.5,1181,1181.5,1182,1182.5,1183,1183.5,1184,1184.5,1185,1185.5,1186,1186.5,1187,1187.5,1188,1188.5,1189,1189.5,1190,1190.5,1191,1191.5,1192,1192.5,1193,1193.5,1194,1194.5,1195,1195.5,1196,1196.5,1197,1197.5,1198,1198.5,1199,1199.5,1200,1200.5,1201,1201.5,1202,1202.5,1203,1203.5,1204,1204.5,1205,1205.5,1206,1206.5,1207,1207.5,1208,1208.5,1209,1209.5,1210,1210.5,1211,1211.5,1212,1212.5,1213,1213.5,1214,1214.5,1215,1215.5,1216,1216.5,1217,1217.5,1218,1218.5,1219,1219.5,1220,1220.5,1221,1221.5,1222,1222.5,1223,1223.5,1224,1224.5,1225,1225.5,1226,1226.5,1227,1227.5,1228,1228.5,1229,1229.5,1230,1230.5,1231,1231.5,1232,1232.5,1233,1233.5,1234,1234.5,1235,1235.5,1236,1236.5,1237,1237.5,1238,1238.5,1239,1239.5,1240,1240.5,1241,1241.5,1242,1242.5,1243,1243.5,1244,1244.5,1245,1245.5,1246,1246.5,1247,1247.5,1248,1248.5,1249,1249.5,1250,1250.5,1251,1251.5,1252,1252.5,1253,1253.5,1254,1254.5,1255,1255.5,1256,1256.5,1257,1257.5,1258,1258.5,1259,1259.5,1260,1260.5,1261,1261.5,1262,1262.5,1263,1263.5,1264,1264.5,1265,1265.5,1266,1266.5,1267,1267.5,1268,1268.5,1269,1269.5,1270,1270.5,1271,1271.5,1272,1272.5,1273,1273.5,1274,1274.5,1275,1275.5,1276,1276.5,1277,1277.5,1278,1278.5,1279,1279.5,1280,1280.5,1281,1281.5,1282,1282.5,1283,1283.5,1284,1284.5,1285,1285.5,1286,1286.5,1287,1287.5,1288,1288.5,1289,1289.5,1290,1290.5,1291,1291.5,1292,1292.5,1293,1293.5,1294,1294.5,1295,1295.5,1296,1296.5,1297,1297.5,1298,1298.5,1299,1299.5,1300,1300.5,1301,1301.5,1302,1302.5,1303,1303.5,1304,1304.5,1305,1305.5,1306,1306.5,1307,1307.5,1308,1308.5,1309,1309.5,1310,1310.5,1311,1311.5,1312,1312.5,1313,1313.5,1314,1314.5,1315,1315.5,1316,1316.5,1317,1317.5,1318,1318.5,1319,1319.5,1320,1320.5,1321,1321.5,1322,1322.5,1323,1323.5,1324,1324.5,1325,1325.5,1326,1326.5,1327,1327.5,1328,1328.5,1329,1329.5,1330,1330.5,1331,1331.5,1332,1332.5,1333,1333.5,1334,1334.5,1335,1335.5,1336,1336.5,1337,1337.5,1338,1338.5,1339,1339.5,1340,1340.5,1341,1341.5,1342,1342.5,1343,1343.5,1344,1344.5,1345,1345.5,1346,1346.5,1347,1347.5,1348,1348.5,1349,1349.5,1350,1350.5,1351,1351.5,1352,1352.5,1353,1353.5,1354,1354.5,1355,1355.5,1356,1356.5,1357,1357.5,1358,1358.5,1359,1359.5,1360,1360.5,1361,1361.5,1362,1362.5,1363,1363.5,1364,1364.5,1365,1365.5,1366,1366.5,1367,1367.5,1368,1368.5,1369,1369.5,1370,1370.5,1371,1371.5,1372,1372.5,1373,1373.5,1374,1374.5,1375,1375.5,1376,1376.5,1377,1377.5,1378,1378.5,1379,1379.5,1380,1380.5,1381,1381.5,1382,1382.5,1383,1383.5,1384,1384.5,1385,1385.5,1386,1386.5,1387,1387.5,1388,1388.5,1389,1389.5,1390,1390.5,1391,1391.5,1392,1392.5,1393,1393.5,1394,1394.5,1395,1395.5,1396,1396.5,1397,1397.5,1398,1398.5,1399,1399.5,1400,1400.5,1401,1401.5,1402,1402.5,1403,1403.5,1404,1404.5,1405,1405.5,1406,1406.5,1407,1407.5,1408,1408.5,1409,1409.5,1410,1410.5,1411,1411.5,1412,1412.5,1413,1413.5,1414,1414.5,1415,1415.5,1416,1416.5,1417,1417.5,1418,1418.5,1419,1419.5,1420,1420.5,1421,1421.5,1422,1422.5,1423,1423.5,1424,1424.5,1425,1425.5,1426,1426.5,1427,1427.5,1428,1428.5,1429,1429.5,1430,1430.5,1431,1431.5,1432,1432.5,1433,1433.5,1434,1434.5,1435,1435.5,1436,1436.5,1437,1437.5,1438,1438.5,1439,1439.5,1440,1440.5,1441,1441.5,1442,1442.5,1443,1443.5,1444,1444.5,1445,1445.5,1446,1446.5,1447,1447.5,1448,1448.5,1449,1449.5,1450,1450.5,1451,1451.5,1452,1452.5,1453,1453.5,1454,1454.5,1455,1455.5,1456,1456.5,1457,1457.5,1458,1458.5,1459,1459.5,1460,1460.5,1461,1461.5,1462,1462.5,1463,1463.5,1464,1464.5,1465,1465.5,1466,1466.5,1467,1467.5,1468,1468.5,1469,1469.5,1470,1470.5,1471,1471.5,1472,1472.5,1473,1473.5,1474,1474.5,1475,1475.5,1476,1476.5,1477,1477.5,1478,1478.5,1479,1479.5,1480,1480.5,1481,1481.5,1482,1482.5,1483,1483.5,1484,1484.5,1485,1485.5,1486,1486.5,1487,1487.5,1488,1488.5,1489,1489.5,1490,1490.5,1491,1491.5,1492,1492.5,1493,1493.5,1494,1494.5,1495,1495.5,1496,1496.5,1497,1497.5,1498,1498.5,1499,1499.5,1500,1500.5,1501,1501.5,1502,1502.5,1503,1503.5,1504,1504.5,1505,1505.5,1506,1506.5,1507,1507.5,1508,1508.5,1509,1509.5,1510,1510.5,1511,1511.5,1512,1512.5,1513,1513.5,1514,1514.5,1515,1515.5,1516,1516.5,1517,1517.5,1518,1518.5,1519,1519.5,1520,1520.5,1521,1521.5,1522,1522.5,1523,1523.5,1524,1524.5,1525,1525.5,1526,1526.5,1527,1527.5,1528,1528.5,1529,1529.5,1530,1530.5,1531,1531.5,1532,1532.5,1533,1533.5,1534,1534.5,1535,1535.5,1536,1536.5,1537,1537.5,1538,1538.5,1539,1539.5,1540,1540.5,1541,1541.5,1542,1542.5,1543,1543.5,1544,1544.5,1545,1545.5,1546,1546.5,1547,1547.5,1548,1548.5,1549,1549.5,1550,1550.5,1551,1551.5,1552,1552.5,1553,1553.5,1554,1554.5,1555,1555.5,1556,1556.5,1557,1557.5,1558,1558.5,1559,1559.5,1560,1560.5,1561,1561.5,1562,1562.5,1563,1563.5,1564,1564.5,1565,1565.5,1566,1566.5,1567,1567.5,1568,1568.5,1569,1569.5,1570,1570.5,1571,1571.5,1572,1572.5,1573,1573.5,1574,1574.5,1575,1575.5,1576,1576.5,1577,1577.5,1578,1578.5,1579,1579.5,1580,1580.5,1581,1581.5,1582,1582.5,1583,1583.5,1584,1584.5,1585,1585.5,1586,1586.5,1587,1587.5,1588,1588.5,1589,1589.5,1590,1590.5,1591,1591.5,1592,1592.5,1593,1593.5,1594,1594.5,1595,1595.5,1596,1596.5,1597,1597.5,1598,1598.5,1599,1599.5,1600,1600.5,1601,1601.5,1602,1602.5,1603,1603.5,1604,1604.5,1605,1605.5,1606,1606.5,1607,1607.5,1608,1608.5,1609,1609.5,1610,1610.5,1611,1611.5,1612,1612.5,1613,1613.5,1614,1614.5,1615,1615.5,1616,1616.5,1617,1617.5,1618,1618.5,1619,1619.5,1620,1620.5,1621,1621.5,1622,1622.5,1623,1623.5,1624,1624.5,1625,1625.5,1626,1626.5,1627,1627.5,1628,1628.5,1629,1629.5,1630,1630.5,1631,1631.5,1632,1632.5,1633,1633.5,1634,1634.5,1635,1635.5,1636,1636.5,1637,1637.5,1638,1638.5,1639,1639.5,1640,1640.5,1641,1641.5,1642,1642.5,1643,1643.5,1644,1644.5,1645,1645.5,1646,1646.5,1647,1647.5,1648,1648.5,1649,1649.5,1650,1650.5,1651,1651.5,1652,1652.5,1653,1653.5,1654,1654.5,1655,1655.5,1656,1656.5,1657,1657.5,1658,1658.5,1659,1659.5,1660,1660.5,1661,1661.5,1662,1662.5,1663,1663.5,1664,1664.5,1665,1665.5,1666,1666.5,1667,1667.5,1668,1668.5,1669,1669.5,1670,1670.5,1671,1671.5,1672,1672.5,1673,1673.5,1674,1674.5,1675,1675.5,1676,1676.5,1677,1677.5,1678,1678.5,1679,1679.5,1680,1680.5,1681,1681.5,1682,1682.5,1683,1683.5,1684,1684.5,1685,1685.5,1686,1686.5,1687,1687.5,1688,1688.5,1689,1689.5,1690,1690.5,1691,1691.5,1692,1692.5,1693,1693.5,1694,1694.5,1695,1695.5,1696,1696.5,1697,1697.5,1698,1698.5,1699,1699.5,1700,1700.5,1701,1701.5,1702,1702.5,1703,1703.5,1704,1704.5,1705,1705.5,1706,1706.5,1707,1707.5,1708,1708.5,1709,1709.5,1710,1710.5,1711,1711.5,1712,1712.5,1713,1713.5,1714,1714.5,1715,1715.5,1716,1716.5,1717,1717.5,1718,1718.5,1719,1719.5,1720,1720.5,1721,1721.5,1722,1722.5,1723,1723.5,1724,1724.5,1725,1725.5,1726,1726.5,1727,1727.5,1728,1728.5,1729,1729.5,1730,1730.5,1731,1731.5,1732,1732.5,1733,1733.5,1734,1734.5,1735,1735.5,1736,1736.5,1737,1737.5,1738,1738.5,1739,1739.5,1740,1740.5,1741,1741.5,1742,1742.5,1743,1743.5,1744,1744.5,1745,1745.5,1746,1746.5,1747,1747.5,1748,1748.5,1749,1749.5,1750,1750.5,1751,1751.5,1752,1752.5,1753,1753.5,1754,1754.5,1755,1755.5,1756,1756.5,1757,1757.5,1758,1758.5,1759,1759.5,1760,1760.5,1761,1761.5,1762,1762.5,1763,1763.5,1764,1764.5,1765,1765.5,1766,1766.5,1767,1767.5,1768,1768.5,1769,1769.5,1770,1770.5,1771,1771.5,1772,1772.5,1773,1773.5,1774,1774.5,1775,1775.5,1776,1776.5,1777,1777.5,1778,1778.5,1779,1779.5,1780,1780.5,1781,1781.5,1782,1782.5,1783,1783.5,1784,1784.5,1785,1785.5,1786,1786.5,1787,1787.5,1788,1788.5,1789,1789.5,1790,1790.5,1791,1791.5,1792,1792.5,1793,1793.5,1794,1794.5,1795,1795.5,1796,1796.5,1797,1797.5,1798,1798.5,1799,1799.5,1800,1800.5,1801,1801.5,1802,1802.5,1803,1803.5,1804,1804.5,1805,1805.5,1806,1806.5,1807,1807.5,1808,1808.5,1809,1809.5,1810,1810.5,1811,1811.5,1812,1812.5,1813,1813.5,1814,1814.5,1815,1815.5,1816,1816.5,1817,1817.5,1818,1818.5,1819,1819.5,1820,1820.5,1821,1821.5,1822,1822.5,1823,1823.5,1824,1824.5,1825,1825.5,1826,1826.5,1827,1827.5,1828,1828.5,1829,1829.5,1830,1830.5,1831,1831.5,1832,1832.5,1833,1833.5,1834,1834.5,1835,1835.5,1836,1836.5,1837,1837.5,1838,1838.5,1839,1839.5,1840,1840.5,1841,1841.5,1842,1842.5,1843,1843.5,1844,1844.5,1845,1845.5,1846,1846.5,1847,1847.5,1848,1848.5,1849,1849.5,1850,1850.5,1851,1851.5,1852,1852.5,1853,1853.5,1854,1854.5,1855,1855.5,1856,1856.5,1857,1857.5,1858,1858.5,1859,1859.5,1860,1860.5,1861,1861.5,1862,1862.5,1863,1863.5,1864,1864.5,1865,1865.5,1866,1866.5,1867,1867.5,1868,1868.5,1869,1869.5,1870,1870.5,1871,1871.5,1872,1872.5,1873,1873.5,1874,1874.5,1875,1875.5,1876,1876.5,1877,1877.5,1878,1878.5,1879,1879.5,1880,1880.5,1881,1881.5,1882,1882.5,1883,1883.5,1884,1884.5,1885,1885.5,1886,1886.5,1887,1887.5,1888,1888.5,1889,1889.5,1890,1890.5,1891,1891.5,1892,1892.5,1893,1893.5,1894,1894.5,1895,1895.5,1896,1896.5,1897,1897.5,1898,1898.5,1899,1899.5,1900,1900.5,1901,1901.5,1902,1902.5,1903,1903.5,1904,1904.5,1905,1905.5,1906,1906.5,1907,1907.5,1908,1908.5,1909,1909.5,1910,1910.5,1911,1911.5,1912,1912.5,1913,1913.5,1914,1914.5,1915,1915.5,1916,1916.5,1917,1917.5,1918,1918.5,1919,1919.5,1920,1920.5,1921,1921.5,1922,1922.5,1923,1923.5,1924,1924.5,1925,1925.5,1926,1926.5,1927,1927.5,1928,1928.5,1929,1929.5,1930,1930.5,1931,1931.5,1932,1932.5,1933,1933.5,1934,1934.5,1935,1935.5,1936,1936.5,1937,1937.5,1938,1938.5,1939,1939.5,1940,1940.5,1941,1941.5,1942,1942.5,1943,1943.5,1944,1944.5,1945,1945.5,1946,1946.5,1947,1947.5,1948,1948.5,1949,1949.5,1950,1950.5,1951,1951.5,1952,1952.5,1953,1953.5,1954,1954.5,1955,1955.5,1956,1956.5,1957,1957.5,1958,1958.5,1959,1959.5,1960,1960.5,1961,1961.5,1962,1962.5,1963,1963.5,1964,1964.5,1965,1965.5,1966,1966.5,1967,1967.5,1968,1968.5,1969,1969.5,1970,1970.5,1971,1971.5,1972,1972.5,1973,1973.5,1974,1974.5,1975,1975.5,1976,1976.5,1977,1977.5,1978,1978.5,1979,1979.5,1980,1980.5,1981,1981.5,1982,1982.5,1983,1983.5,1984,1984.5,1985,1985.5,1986,1986.5,1987,1987.5,1988,1988.5,1989,1989.5,1990,1990.5,1991,1991.5,1992,1992.5,1993,1993.5,1994,1994.5,1995,1995.5,1996,1996.5,1997,1997.5,1998,1998.5,1999,1999.5,2000,2000.5,2001,2001.5,2002,2002.5,2003,2003.5,2004,2004.5,2005,2005.5,2006,2006.5,2007,2007.5,2008,2008.5,2009,2009.5,2010,2010.5,2011,2011.5,2012,2012.5,2013,2013.5,2014,2014.5,2015,2015.5,2016,2016.5,2017,2017.5,2018,2018.5,2019,2019.5,2020,2020.5,2021,2021.5,2022,2022.5,2023,2023.5,2024,2024.5,2025,2025.5,2026,2026.5,2027,2027.5,2028,2028.5,2029,2029.5,2030,2030.5,2031,2031.5,2032,2032.5,2033,2033.5,2034,2034.5,2035,2035.5,2036,2036.5,2037,2037.5,2038,2038.5,2039,2039.5,2040,2040.5,2041,2041.5,2042,2042.5,2043,2043.5,2044,2044.5,2045,2045.5,2046,2046.5,2047,2047.5,2048,2048.5,2049,2049.5,2050,2050.5,2051,2051.5,2052,2052.5,2053,2053.5,2054,2054.5,2055,2055.5,2056,2056.5,2057,2057.5,2058,2058.5,2059,2059.5,2060,2060.5,2061,2061.5,2062,2062.5,2063,2063.5,2064,2064.5,2065,2065.5,2066,2066.5,2067,2067.5,2068,2068.5,2069,2069.5,2070,2070.5,2071,2071.5,2072,2072.5,2073,2073.5,2074,2074.5,2075,2075.5,2076,2076.5,2077,2077.5,2078,2078.5,2079,2079.5,2080,2080.5,2081,2081.5,2082,2082.5,2083,2083.5,2084,2084.5,2085,2085.5,2086,2086.5,2087,2087.5,2088,2088.5,2089,2089.5,2090,2090.5,2091,2091.5,2092,2092.5,2093,2093.5,2094,2094.5,2095,2095.5,2096,2096.5,2097,2097.5,2098,2098.5,2099,2099.5,2100,2100.5,2101,2101.5,2102,2102.5,2103,2103.5,2104,2104.5,2105,2105.5,2106,2106.5,2107,2107.5,2108,2108.5,2109,2109.5,2110,2110.5,2111,2111.5,2112,2112.5,2113,2113.5,2114,2114.5,2115,2115.5,2116,2116.5,2117,2117.5,2118,2118.5,2119,2119.5,2120,2120.5,2121,2121.5,2122,2122.5,2123,2123.5,2124,2124.5,2125,2125.5,2126,2126.5,2127,2127.5,2128,2128.5,2129,2129.5,2130,2130.5,2131,2131.5,2132,2132.5,2133,2133.5,2134,2134.5,2135,2135.5,2136,2136.5,2137,2137.5,2138,2138.5,2139,2139.5,2140,2140.5,2141,2141.5,2142,2142.5,2143,2143.5,2144,2144.5,2145,2145.5,2146,2146.5,2147,2147.5,2148,2148.5,2149,2149.5,2150,2150.5,2151,2151.5,2152,2152.5,2153,2153.5,2154,2154.5,2155,2155.5,2156,2156.5,2157,2157.5,2158,2158.5,2159,2159.5,2160,2160.5,2161,2161.5,2162,2162.5,2163,2163.5,2164,2164.5,2165,2165.5,2166,2166.5,2167,2167.5,2168,2168.5,2169,2169.5,2170,2170.5,2171,2171.5,2172,2172.5,2173,2173.5,2174,2174.5,2175,2175.5,2176,2176.5,2177,2177.5,2178,2178.5,2179,2179.5,2180,2180.5,2181,2181.5,2182,2182.5,2183,2183.5,2184,2184.5,2185,2185.5,2186,2186.5,2187,2187.5,2188,2188.5,2189,2189.5,2190,2190.5,2191,2191.5,2192,2192.5,2193,2193.5,2194,2194.5,2195,2195.5,2196,2196.5,2197,2197.5,2198,2198.5,2199,2199.5,2200,2200.5,2201,2201.5,2202,2202.5,2203,2203.5,2204,2204.5,2205,2205.5,2206,2206.5,2207,2207.5,2208,2208.5,2209,2209.5,2210,2210.5,2211,2211.5,2212,2212.5,2213,2213.5,2214,2214.5,2215,2215.5,2216,2216.5,2217,2217.5,2218,2218.5,2219,2219.5,2220,2220.5,2221,2221.5,2222,2222.5,2223,2223.5,2224,2224.5,2225,2225.5,2226,2226.5,2227,2227.5,2228,2228.5,2229,2229.5,2230,2230.5,2231,2231.5,2232,2232.5,2233,2233.5,2234,2234.5,2235,2235.5,2236,2236.5,2237,2237.5,2238,2238.5,2239,2239.5,2240,2240.5,2241,2241.5,2242,2242.5,2243,2243.5,2244,2244.5,2245,2245.5,2246,2246.5,2247,2247.5,2248,2248.5,2249,2249.5,2250,2250.5,2251,2251.5,2252,2252.5,2253,2253.5,2254,2254.5,2255,2255.5,2256,2256.5,2257,2257.5,2258,2258.5,2259,2259.5,2260,2260.5,2261,2261.5,2262,2262.5,2263,2263.5,2264,2264.5,2265,2265.5,2266,2266.5,2267,2267.5,2268,2268.5,2269,2269.5,2270,2270.5,2271,2271.5,2272,2272.5,2273,2273.5,2274,2274.5,2275,2275.5,2276,2276.5,2277,2277.5,2278,2278.5,2279,2279.5,2280,2280.5,2281,2281.5,2282,2282.5,2283,2283.5,2284,2284.5,2285,2285.5,2286,2286.5,2287,2287.5,2288,2288.5,2289,2289.5,2290,2290.5,2291,2291.5,2292,2292.5,2293,2293.5,2294,2294.5,2295,2295.5,2296,2296.5,2297,2297.5,2298,2298.5,2299,2299.5,2300,2300.5,2301,2301.5,2302,2302.5,2303,2303.5,2304,2304.5,2305,2305.5,2306,2306.5,2307,2307.5,2308,2308.5,2309,2309.5,2310,2310.5,2311,2311.5,2312,2312.5,2313,2313.5,2314,2314.5,2315,2315.5,2316,2316.5,2317,2317.5,2318,2318.5,2319,2319.5,2320,2320.5,2321,2321.5,2322,2322.5,2323,2323.5,2324,2324.5,2325,2325.5,2326,2326.5,2327,2327.5,2328,2328.5,2329,2329.5,2330,2330.5,2331,2331.5,2332,2332.5,2333,2333.5,2334,2334.5,2335,2335.5,2336,2336.5,2337,2337.5,2338,2338.5,2339,2339.5,2340,2340.5,2341,2341.5,2342,2342.5,2343,2343.5,2344,2344.5,2345,2345.5,2346,2346.5,2347,2347.5,2348,2348.5,2349,2349.5,2350,2350.5,2351,2351.5,2352,2352.5,2353,2353.5,2354,2354.5,2355,2355.5,2356,2356.5,2357,2357.5,2358,2358.5,2359,2359.5,2360,2360.5,2361,2361.5,2362,2362.5,2363,2363.5,2364,2364.5,2365,2365.5,2366,2366.5,2367,2367.5,2368,2368.5,2369,2369.5,2370,2370.5,2371,2371.5,2372,2372.5,2373,2373.5,2374,2374.5,2375,2375.5,2376,2376.5,2377,2377.5,2378,2378.5,2379,2379.5,2380,2380.5,2381,2381.5,2382,2382.5,2383,2383.5,2384,2384.5,2385,2385.5,2386,2386.5,2387,2387.5,2388,2388.5,2389,2389.5,2390,2390.5,2391,2391.5,2392,2392.5,2393,2393.5,2394,2394.5,2395,2395.5,2396,2396.5,2397,2397.5,2398,2398.5,2399,2399.5,2400,2400.5,2401,2401.5,2402,2402.5,2403,2403.5,2404,2404.5,2405,2405.5,2406,2406.5,2407,2407.5,2408,2408.5,2409,2409.5,2410,2410.5,2411,2411.5,2412,2412.5,2413,2413.5,2414,2414.5,2415,2415.5,2416,2416.5,2417,2417.5,2418,2418.5,2419,2419.5,2420,2420.5,2421,2421.5,2422,2422.5,2423,2423.5,2424,2424.5,2425,2425.5,2426,2426.5,2427,2427.5,2428,2428.5,2429,2429.5,2430,2430.5,2431,2431.5,2432,2432.5,2433,2433.5,2434,2434.5,2435,2435.5,2436,2436.5,2437,2437.5,2438,2438.5,2439,2439.5,2440,2440.5,2441,2441.5,2442,2442.5,2443,2443.5,2444,2444.5,2445,2445.5,2446,2446.5,2447,2447.5,2448,2448.5,2449,2449.5,2450,2450.5,2451,2451.5,2452,2452.5,2453,2453.5,2454,2454.5,2455,2455.5,2456,2456.5,2457,2457.5,2458,2458.5,2459,2459.5,2460,2460.5,2461,2461.5,2462,2462.5,2463,2463.5,2464,2464.5,2465,2465.5,2466,2466.5,2467,2467.5,2468,2468.5,2469,2469.5,2470,2470.5,2471,2471.5,2472,2472.5,2473,2473.5,2474,2474.5,2475,2475.5,2476,2476.5,2477,2477.5,2478,2478.5,2479,2479.5,2480,2480.5,2481,2481.5,2482,2482.5,2483,2483.5,2484,2484.5,2485,2485.5,2486,2486.5,2487,2487.5,2488,2488.5,2489,2489.5,2490,2490.5,2491,2491.5,2492,2492.5,2493,2493.5,2494,2494.5,2495,2495.5,2496,2496.5,2497,2497.5,2498,2498.5,2499,2499.5
F24-3416,CIAT-705,Indigofera suffruticosa,Herbaceous_legumes,91.97,12.68,87.32,33.01,28.05,45.22,29.35,61.94,134.59,74.34,5.52,14.26,17.35,23.36,31.84,149.32,0.9835519,0.9851158,0.9866273,0.9880908,0.9895113,0.9908932,0.9922416,0.9935569,0.9948378,0.9960847,0.9972941,0.998464,0.9995905,1.0006716,1.0017068,1.0026975,1.0036432,1.0045478,1.0054139,1.0062469,1.0070481,1.0078207,1.0085683,1.0092915,1.0099916,1.0106667,1.0113201,1.0119483,1.0125504,1.0131259,1.0136771,1.0141997,1.0146942,1.0151601,1.0156007,1.0160134,1.016397,1.0167509,1.0170746,1.0173682,1.0176299,1.0178568,1.0180467,1.0181998,1.0183141,1.0183884,1.018424,1.0184211,1.0183783,1.0182983,1.0181832,1.0180347,1.0178564,1.0176516,1.0174243,1.0171771,1.0169134,1.0166343,1.0163434,1.016044,1.0157351,1.0154196,1.0150987,1.01477,1.0144374,1.0140973,1.013752,1.0134025,1.0130459,1.0126827,1.0123129,1.0119359,1.0115519,1.0111604,1.0107614,1.0103542,1.0099361,1.0095077,1.0090724,1.0086346,1.008196,1.0077589,1.0073243,1.0068977,1.0064818,1.006079,1.0056899,1.0053152,1.0049528,1.0046004,1.004257,1.0039219,1.0035934,1.0032719,1.0029573,1.0026479,1.0023422,1.0020385,1.0017385,1.0014427,1.0011487,1.000859,1.0005751,1.000299,1.0000291,0.9997637,0.9995058,0.9992542,0.9990072,0.998766,0.9985291,0.9982921,0.9980545,0.9978193,0.9975833,0.9973428,0.9970942,0.9968395,0.9965789,0.9963123,0.9960421,0.9957677,0.9954853,0.995195,0.9948957,0.9945866,0.9942689,0.9939408,0.9936007,0.9932487,0.9928838,0.9925066,0.9921169,0.9917146,0.9913012,0.9908783,0.9904467,0.9900049,0.9895531,0.9890928,0.9886247,0.9881501,0.987669,0.9871809,0.9866885,0.9861926,0.9856921,0.9851859,0.9846722,0.9841502,0.9836192,0.9830806,0.9825342,0.9819818,0.9814267,0.98087,0.9803107,0.9797467,0.9791769,0.978604,0.9780278,0.9774523,0.9768772,0.9763022,0.9757269,0.9751505,0.9745721,0.9739909,0.973407,0.9728204,0.9722294,0.9716333,0.9710295,0.9704139,0.9697849,0.9691433,0.9684904,0.9678253,0.9671464,0.9664536,0.9657452,0.9650209,0.9642802,0.9635224,0.9627473,0.9619538,0.9611432,0.9603138,0.9594637,0.9585932,0.9577008,0.9567873,0.9558543,0.9549012,0.9539257,0.9529252,0.9518971,0.9508397,0.9497546,0.9486419,0.9475012,0.9463321,0.9451344,0.9439055,0.9426483,0.9413628,0.9400496,0.9387092,0.9373416,0.9359472,0.9345275,0.9330821,0.9316113,0.9301151,0.9285943,0.9270492,0.9254802,0.9238871,0.9222687,0.9206278,0.9189661,0.9172846,0.9155838,0.9138654,0.9121304,0.9103778,0.9086107,0.9068328,0.9050461,0.9032545,0.9014594,0.8996629,0.8978679,0.8960776,0.8942939,0.8925199,0.8907593,0.8890129,0.8872834,0.8855735,0.8838857,0.8822237,0.8805903,0.8789886,0.8774219,0.8758929,0.8744048,0.8729609,0.8715638,0.8702158,0.8689191,0.8676757,0.8664873,0.8653549,0.8642792,0.8632593,0.8622961,0.8613898,0.8605399,0.859746,0.8590065,0.8583202,0.8576854,0.8570995,0.8565611,0.8560668,0.8556132,0.8551973,0.8548169,0.854467,0.8541432,0.8538409,0.8535568,0.8532857,0.8530233,0.8527644,0.8525051,0.8522413,0.8519678,0.8516812,0.8513759,0.85105,0.8507007,0.8503256,0.8499206,0.8494855,0.8490193,0.8485219,0.8479931,0.8474327,0.8468403,0.846218,0.8455675,0.844891,0.84419,0.8434676,0.842726,0.8419673,0.841195,0.8404127,0.8396217,0.8388258,0.838029,0.8372341,0.836444,0.8356616,0.8348884,0.8341269,0.8333802,0.8326499,0.8319398,0.8312503,0.8305815,0.8299347,0.8293104,0.8287119,0.8281375,0.8275874,0.8270606,0.8265575,0.8260775,0.8256203,0.8251852,0.8247712,0.824378,0.8240042,0.8236494,0.8233125,0.8229927,0.8226885,0.8223993,0.8221238,0.8218609,0.8216099,0.8213691,0.8211381,0.8209147,0.8206983,0.8204885,0.8202838,0.8200845,0.8198891,0.8196986,0.8195124,0.8193296,0.8191496,0.8189727,0.8187982,0.8186266,0.8184568,0.8182891,0.8181232,0.8179583,0.8177934,0.8176298,0.8174673,0.8173065,0.8171474,0.8169899,0.8168344,0.8166813,0.8165309,0.8163838,0.8162401,0.8161007,0.8159637,0.8158307,0.8157036,0.8155841,0.8154738,0.815374,0.8152857,0.8152102,0.8151485,0.8151004,0.8150654,0.8150449,0.8150396,0.8150503,0.8150791,0.815127,0.8151948,0.8152835,0.8153939,0.8155274,0.8156844,0.815866,0.8160733,0.8163065,0.8165665,0.8168519,0.8171626,0.8175011,0.8178679,0.8182638,0.8186902,0.8191469,0.8196324,0.8201449,0.820684,0.8212489,0.8218383,0.8224508,0.8230847,0.8237382,0.8244098,0.8250971,0.8257977,0.826509,0.827229,0.8279546,0.8286828,0.8294109,0.8301369,0.8308574,0.8315704,0.8322734,0.8329625,0.8336348,0.8342878,0.8349184,0.8355252,0.8361055,0.8366571,0.837178,0.8376667,0.8381217,0.8385416,0.8389249,0.8392714,0.8395805,0.839852,0.8400856,0.8402816,0.8404406,0.8405638,0.8406513,0.8407044,0.8407249,0.8407144,0.8406731,0.8406038,0.8405067,0.8403843,0.8402387,0.8400728,0.8398889,0.8396907,0.83948,0.8392599,0.8390325,0.8387995,0.8385645,0.8383304,0.8380992,0.8378749,0.8376603,0.8374588,0.8372729,0.8371032,0.8369548,0.8368309,0.8367341,0.8366675,0.8366328,0.8366333,0.8366715,0.8367495,0.8368694,0.8370358,0.8372491,0.8375111,0.8378255,0.8381931,0.8386155,0.8390955,0.8396323,0.840227,0.8408825,0.841598,0.8423738,0.8432111,0.8441101,0.8450711,0.846094,0.8471769,0.8483209,0.849526,0.8507916,0.8521159,0.8534993,0.8549398,0.8564377,0.857992,0.859601,0.861265,0.8629833,0.8647555,0.866581,0.8684595,0.8703908,0.8723747,0.8744112,0.8765005,0.878642,0.8808357,0.8830827,0.8853818,0.887733,0.8901349,0.892586,0.8950852,0.8976303,0.9002196,0.90285,0.9055178,0.9082198,0.9109517,0.913708,0.9164831,0.9192709,0.9220644,0.9248565,0.9276392,0.9304036,0.9331422,0.9358445,0.9385,0.9410982,0.9436285,0.9460814,0.9484446,0.9507071,0.9528578,0.9548859,0.9567809,0.9585329,0.9601318,0.9615679,0.9628327,0.9639176,0.964815,0.9655181,0.9660206,0.9663182,0.9664073,0.9662828,0.965941,0.9653801,0.9645995,0.9635983,0.9623763,0.9609358,0.9592776,0.9574044,0.955319,0.9530253,0.9505278,0.9478303,0.9449385,0.9418585,0.9385962,0.9351582,0.931551,0.9277814,0.9238569,0.9197855,0.9155742,0.9112307,0.9067624,0.9021774,0.8974836,0.8926889,0.8878008,0.8828268,0.8777745,0.8726519,0.8674655,0.862222,0.8569278,0.8515888,0.8462115,0.8408018,0.8353645,0.8299047,0.8244267,0.8189353,0.8134344,0.807928,0.8024197,0.7969139,0.7914125,0.7859185,0.7804347,0.7749631,0.7695067,0.7640671,0.7586468,0.7532476,0.7478713,0.7425199,0.7371951,0.7318984,0.7266318,0.7213964,0.7161943,0.711027,0.7058961,0.7008034,0.6957507,0.690739,0.6857699,0.6808447,0.6759646,0.671131,0.6663448,0.6616066,0.6569177,0.6522793,0.6476917,0.6431556,0.6386715,0.6342396,0.6298596,0.6255325,0.6212581,0.6170369,0.6128684,0.6087527,0.6046896,0.6006806,0.596723,0.5928167,0.5889609,0.5851551,0.5813985,0.5776905,0.5740303,0.5704168,0.5668498,0.5633281,0.5598511,0.5564181,0.553028,0.5496805,0.5463743,0.5431091,0.5398841,0.5366988,0.5335534,0.5304462,0.5273769,0.524345,0.5213505,0.5183929,0.5154718,0.5125873,0.509739,0.5069268,0.5041508,0.5014111,0.498708,0.4960411,0.4934109,0.4908175,0.4882613,0.4857419,0.4832594,0.4808143,0.4784064,0.4760353,0.4737017,0.4714058,0.4691473,0.4669263,0.4647431,0.4625974,0.4604894,0.4584193,0.4563864,0.4543906,0.4524313,0.4505087,0.4486222,0.4467712,0.4449556,0.4431749,0.4414287,0.4397165,0.4380375,0.4363908,0.434776,0.4331924,0.4316393,0.4301159,0.4286215,0.4271554,0.4257165,0.424304,0.4229169,0.4215546,0.4202158,0.4188997,0.4176054,0.4163323,0.4150793,0.4138452,0.4126289,0.4114295,0.4102457,0.4090769,0.4079217,0.4067794,0.4056491,0.4045298,0.4034203,0.4023197,0.401227,0.4001417,0.3990631,0.3979906,0.3969232,0.3958607,0.3948027,0.3937492,0.3926998,0.3916538,0.3906114,0.3895723,0.3885364,0.3875037,0.3864741,0.385448,0.3844256,0.3834071,0.3823927,0.3813825,0.3803771,0.3793765,0.3783814,0.3773919,0.3764077,0.3754296,0.3744577,0.3734923,0.3725338,0.3715816,0.3706362,0.3696976,0.3687662,0.3678422,0.3669258,0.3660169,0.3651156,0.364222,0.3633361,0.3624578,0.361587,0.3607238,0.359868,0.3590196,0.3581783,0.357344,0.3565168,0.3556963,0.3548825,0.3540755,0.3532751,0.3524806,0.3516927,0.3509108,0.3501342,0.3493629,0.3485968,0.3478359,0.3470797,0.3463276,0.34558,0.3448363,0.3440958,0.3433585,0.3426243,0.3418931,0.3411649,0.3404393,0.3397161,0.3389957,0.3382777,0.3375619,0.3368483,0.3361371,0.3354274,0.3347194,0.3340136,0.3333092,0.3326067,0.3319059,0.331207,0.3305097,0.3298141,0.32912,0.3284275,0.3277368,0.3270476,0.3263601,0.3256743,0.3249901,0.3243074,0.3236264,0.3229471,0.3222692,0.3215932,0.3209193,0.3202476,0.3195786,0.3189124,0.3182492,0.3175891,0.3169323,0.3162788,0.3156289,0.3149824,0.314339,0.313699,0.3130623,0.3124288,0.3117984,0.311171,0.3105466,0.3099251,0.3093067,0.3086911,0.308078,0.3074673,0.3068593,0.3062538,0.3056506,0.3050497,0.3044511,0.3038549,0.3032603,0.3026678,0.3020774,0.3014893,0.3009028,0.3003182,0.2997355,0.2991543,0.2985744,0.2979965,0.2974195,0.2968437,0.2962697,0.2956971,0.2951259,0.2945563,0.2939879,0.293421,0.2928559,0.292292,0.2917294,0.2911679,0.2906078,0.2900488,0.2894914,0.2889355,0.2883807,0.2878271,0.2872741,0.2867216,0.28617,0.2856193,0.2850699,0.2845218,0.2839751,0.2834297,0.2828857,0.2823434,0.2818022,0.2812625,0.2807238,0.2801864,0.2796504,0.2791157,0.2785822,0.27805,0.2775192,0.2769897,0.2764614,0.2759345,0.2754091,0.274886,0.2743642,0.2738436,0.2733242,0.272806,0.2722889,0.271773,0.2712587,0.2707456,0.2702343,0.2697244,0.2692159,0.2687088,0.2682027,0.2676976,0.2671939,0.2666913,0.2661899,0.2656898,0.2651911,0.2646938,0.2641981,0.2637044,0.2632122,0.2627212,0.2622317,0.2617438,0.261257,0.2607716,0.2602873,0.2598042,0.2593221,0.2588405,0.2583589,0.2578777,0.2573971,0.2569174,0.2564392,0.2559622,0.2554863,0.2550116,0.2545382,0.2540658,0.2535943,0.2531241,0.2526551,0.2521886,0.2517231,0.2512591,0.2507973,0.2503372,0.249878,0.2494201,0.2489625,0.2485059,0.2480495,0.2475937,0.2471382,0.2466837,0.2462301,0.2457773,0.2453256,0.2448752,0.2444261,0.243978,0.243531,0.2430849,0.2426401,0.2421965,0.2417541,0.2413129,0.2408728,0.2404346,0.2399986,0.2395628,0.2391278,0.238694,0.2382614,0.23783,0.2373996,0.2369705,0.2365422,0.236115,0.2356891,0.2352644,0.2348408,0.2344178,0.2339959,0.2335751,0.2331554,0.232737,0.2323198,0.2319037,0.2314887,0.2310746,0.2306613,0.2302496,0.2298387,0.2294287,0.2290197,0.2286113,0.2282039,0.2277973,0.2273915,0.2269866,0.2265824,0.2261793,0.2257769,0.2253753,0.2249747,0.224575,0.2241763,0.2237792,0.2233836,0.222989,0.2225954,0.2222031,0.2218117,0.2214213,0.2210315,0.2206425,0.2202541,0.2198662,0.2194785,0.2190912,0.2187042,0.2183176,0.2179311,0.2175453,0.2171598,0.2167747,0.2163898,0.2160053,0.2156211,0.2152371,0.2148536,0.2144707,0.2140881,0.213706,0.2133248,0.212944,0.2125638,0.212184,0.2118047,0.2114261,0.2110479,0.2106702,0.2102932,0.2099167,0.2095408,0.2091655,0.2087909,0.2084169,0.2080436,0.2076711,0.2072996,0.2069288,0.2065588,0.2061894,0.2058207,0.2054526,0.2050851,0.2047183,0.2043518,0.2039853,0.2036193,0.2032541,0.2028896,0.202526,0.202163,0.2018006,0.2014391,0.2010782,0.200718,0.2003587,0.2000002,0.1996426,0.1992857,0.1989296,0.1985742,0.1982195,0.1978656,0.1975123,0.1971602,0.1968091,0.1964592,0.1961102,0.1957625,0.195416,0.1950709,0.1947269,0.194385,0.1940445,0.1937054,0.1933677,0.1930315,0.1926965,0.1923632,0.192031,0.1917002,0.1913709,0.1910432,0.1907171,0.1903923,0.1900692,0.1897477,0.1894278,0.1891094,0.1887934,0.1884791,0.1881665,0.1878553,0.1875458,0.1872379,0.1869316,0.1866266,0.1863233,0.1860213,0.1857209,0.1854221,0.1851245,0.1848286,0.1845332,0.1842391,0.1839466,0.1836554,0.1833655,0.183077,0.18279,0.1825044,0.1822205,0.1819379,0.1816566,0.1813767,0.1810984,0.1808214,0.1805455,0.1802714,0.179999,0.1797279,0.1794581,0.1791897,0.1789224,0.1786563,0.1783917,0.1781281,0.1778657,0.1776044,0.1773442,0.1770846,0.1768258,0.1765682,0.1763116,0.1760559,0.175801,0.1755469,0.1752936,0.1750413,0.1747892,0.1745381,0.1742876,0.1740375,0.1737878,0.1735383,0.1732895,0.1730412,0.1727938,0.1725475,0.1723018,0.1720565,0.1718117,0.1715671,0.1713231,0.1710795,0.1708363,0.1705936,0.1703511,0.170109,0.1698673,0.1696256,0.1693843,0.1691433,0.1689025,0.1686618,0.1684216,0.1681816,0.167942,0.1677026,0.1674637,0.1672253,0.1669878,0.1667507,0.166514,0.1662776,0.1660414,0.1658053,0.1655696,0.1653342,0.1650994,0.1648654,0.164632,0.1643991,0.1641668,0.163935,0.1637038,0.1634732,0.1632432,0.1630138,0.1627852,0.1625572,0.1623302,0.1621041,0.1618786,0.1616539,0.16143,0.1612069,0.1609847,0.1607631,0.1605425,0.1603227,0.1601038,0.1598856,0.1596678,0.1594509,0.1592343,0.1590183,0.1588032,0.1585886,0.1583746,0.158161,0.157948,0.1577353,0.1575231,0.1573112,0.1570997,0.1568886,0.1566777,0.1564669,0.156256,0.1560455,0.1558349,0.1556245,0.1554143,0.1552041,0.154994,0.154784,0.1545735,0.1543629,0.1541525,0.1539422,0.153732,0.1535219,0.1533121,0.1531024,0.152893,0.1526839,0.1524749,0.1522661,0.1520578,0.1518496,0.1516418,0.1514341,0.1512268,0.1510203,0.1508138,0.1506076,0.1504021,0.1501967,0.1499918,0.1497872,0.1495831,0.1493798,0.149177,0.1489748,0.1487732,0.148572,0.1483715,0.1481707,0.1479704,0.1477705,0.1475711,0.1473723,0.147174,0.1469759,0.1467784,0.1465813,0.1463842,0.1461876,0.1459918,0.1457966,0.1456018,0.1454076,0.1452141,0.145021,0.1448282,0.1446358,0.1444437,0.144252,0.1440606,0.1438696,0.1436804,0.1434922,0.1433042,0.1431169,0.1429298,0.1427431,0.1425571,0.1423711,0.1421856,0.1420003,0.1418153,0.1416304,0.1414458,0.1412614,0.1410771,0.140893,0.1407092,0.1405255,0.1403424,0.1401598,0.1399772,0.139795,0.1396132,0.1394317,0.1392504,0.1390694,0.1388886,0.1387082,0.1385277,0.1383474,0.1381675,0.1379878,0.1378082,0.137629,0.13745,0.1372715,0.1370928,0.1369146,0.1367368,0.1365595,0.1363829,0.136207,0.1360316,0.135857,0.1356832,0.1355101,0.1353379,0.1351665,0.1349959,0.1348262,0.1346571,0.134489,0.1343215,0.1341549,0.1339888,0.1338229,0.1336582,0.1334945,0.1333315,0.1331692,0.1330085,0.1328484,0.1326893,0.1325309,0.1323731,0.1322158,0.132059,0.131903,0.1317478,0.1315934,0.1314401,0.1312875,0.1311361,0.1309852,0.1308345,0.1306843,0.1305357,0.130389,0.1302434,0.1300988,0.1299548,0.1298119,0.1296692,0.1295268,0.1293844,0.1292418,0.1290985,0.128955,0.1288104,0.1286647,0.1285178,0.1283699,0.1282212,0.1280704,0.1279189,0.1277657,0.1276117,0.1274568,0.1273013,0.1271454,0.1269892,0.1268331,0.1266771,0.1265215,0.1263663,0.1262119,0.1260584,0.1259059,0.1257546,0.1239006,0.1237736,0.1236485,0.1235252,0.1234037,0.1232835,0.1231646,0.1230467,0.1229299,0.1228143,0.1227001,0.1225875,0.1224765,0.1223674,0.12226,0.1221543,0.1220502,0.1219478,0.121847,0.1217477,0.1216499,0.1215536,0.1214587,0.1213653,0.1212737,0.121184,0.1210965,0.1210115,0.1209291,0.1208495,0.1207728,0.1206988,0.1206272,0.120558,0.1204909,0.1204258,0.1203624,0.1203008,0.1202411,0.1201832,0.1201275,0.1200741,0.1200233,0.1199753,0.1199302,0.1198885,0.1198501,0.1198154,0.1197846,0.1197579,0.1197354,0.1197176,0.1197047,0.1196971,0.119695,0.1196986,0.119708,0.1197232,0.1197442,0.1197707,0.1198025,0.1198394,0.1198813,0.119928,0.1199793,0.1200352,0.1200956,0.1201601,0.1202286,0.1203005,0.1203755,0.1204529,0.1205323,0.1206128,0.1206942,0.120776,0.1208579,0.1209395,0.1210209,0.1211018,0.1211823,0.1212624,0.121342,0.1214214,0.1215005,0.1215798,0.1216592,0.1217389,0.1218191,0.1219,0.1219815,0.1220636,0.1221467,0.1222306,0.1223157,0.1224019,0.1224898,0.1225799,0.1226726,0.1227683,0.1228673,0.1229699,0.1230764,0.1231869,0.1233016,0.1234203,0.1235432,0.12367,0.1238006,0.123935,0.1240729,0.1242144,0.1243595,0.1245078,0.1246594,0.1248141,0.1249719,0.1251326,0.1252959,0.1254615,0.1256291,0.1257981,0.1259681,0.1261384,0.1263085,0.1264777,0.1266456,0.1268116,0.1269753,0.1271363,0.1272945,0.1274497,0.1276022,0.1277522,0.1278998,0.1280452,0.1281888,0.1283308,0.1284714,0.128611,0.1287496,0.1288875,0.1290251,0.1291625,0.1293002,0.1294384,0.1295774,0.1297176,0.1298592,0.1300026,0.130148,0.1302954,0.1304451,0.1305968,0.1307503,0.1309056,0.1310622,0.1312194,0.131377,0.1315343,0.1316908,0.1318461,0.1319995,0.1321506,0.1322986,0.132443,0.132583,0.1327177,0.1328465,0.1329688,0.1330839,0.1331913,0.1332907,0.1333815,0.1334635,0.1335363,0.1336,0.1336543,0.1336995,0.1337356,0.1337629,0.1337814,0.1337918,0.1337945,0.1337901,0.1337788,0.133761,0.133737,0.1337072,0.1336718,0.1336311,0.1335853,0.1335349,0.1334803,0.1334216,0.1333591,0.133293,0.1332235,0.1331507,0.1330749,0.132996,0.1329143,0.13283,0.1327431,0.1326536,0.1325616,0.132467,0.1323695,0.132269,0.1321651,0.1320578,0.1319467,0.1318316,0.1317122,0.1315883,0.1314595,0.1313256,0.1311862,0.1310414,0.1308909,0.1307349,0.1305736,0.130407,0.1302352,0.1300584,0.1298768,0.1296904,0.1294991,0.1293028,0.1291015,0.1288953,0.1286842,0.1284682,0.1282474,0.1280221,0.1277924,0.1275587,0.1273211,0.1270801,0.1268364,0.1265905,0.1263428,0.126094,0.1258447,0.1255956,0.1253471,0.1250997,0.1248537,0.1246098,0.1243682,0.1241294,0.1238935,0.1236607,0.1234309,0.1232044,0.1229812,0.1227614,0.1225451,0.1223325,0.1221235,0.1219185,0.1217174,0.1215203,0.1213271,0.1211377,0.120952,0.1207697,0.1205905,0.1204141,0.1202403,0.1200689,0.1198998,0.119733,0.1195688,0.119407,0.1192478,0.1190912,0.1189371,0.1187854,0.1186359,0.1184885,0.1183431,0.1181995,0.1180578,0.1179181,0.1177802,0.1176442,0.1175102,0.1173783,0.1172485,0.1171206,0.1169946,0.1168707,0.1167488,0.116629,0.1165112,0.1163955,0.1162818,0.1161701,0.1160604,0.1159527,0.115847,0.1157433,0.1156417,0.1155425,0.1154457,0.1153514,0.1152599,0.1151715,0.115086,0.1150037,0.1149244,0.1148483,0.1147753,0.1147052,0.1146378,0.1145731,0.1145112,0.1144521,0.1143957,0.1143421,0.1142911,0.1142427,0.1141967,0.1141531,0.1141115,0.1140716,0.1140335,0.1139967,0.1139611,0.1139264,0.1138924,0.1138592,0.1138267,0.1137947,0.1137633,0.1137323,0.1137018,0.1136715,0.1136411,0.1136104,0.1135795,0.1135482,0.1135162,0.1134836,0.11345,0.1134154,0.1133794,0.113342,0.113303,0.1132624,0.1132201,0.1131763,0.1131309,0.1130838,0.1130351,0.1129846,0.1129324,0.1128785,0.1128231,0.1127662,0.1127082,0.1126491,0.1125892,0.1125288,0.112468,0.1124068,0.1123454,0.1122839,0.1122223,0.1121607,0.1120993,0.112038,0.1119773,0.1119169,0.111857,0.1117977,0.111739,0.1116809,0.1116234,0.1115668,0.1115112,0.1114569,0.1114041,0.1113529,0.1113032,0.1112552,0.1112089,0.1111643,0.1111213,0.1110801,0.1110406,0.111003,0.110967,0.1109327,0.1109001,0.1108692,0.1108399,0.1108122,0.1107863,0.1107623,0.1107403,0.1107206,0.1107032,0.1106882,0.1106754,0.110665,0.1106569,0.1106512,0.1106478,0.1106467,0.1106481,0.1106519,0.110658,0.1106664,0.1106772,0.1106903,0.1107055,0.110723,0.1107427,0.1107648,0.1107894,0.1108166,0.1108465,0.1108791,0.1109145,0.1109526,0.1109934,0.1110369,0.111083,0.1111317,0.1111828,0.1112364,0.1112924,0.111351,0.1114119,0.1114754,0.1115414,0.1116098,0.1116811,0.1117553,0.1118326,0.1119134,0.1119977,0.1120859,0.112178,0.1122739,0.1123739,0.1124778,0.1125858,0.1126979,0.1128143,0.1129351,0.1130602,0.1131895,0.1133227,0.1134601,0.1136012,0.1137462,0.1138951,0.114048,0.1142051,0.1143665,0.1145322,0.1147022,0.1148765,0.1150551,0.1152379,0.1154251,0.1156168,0.1158128,0.1160136,0.1162194,0.1164302,0.116646,0.1168669,0.1170929,0.1173238,0.1175596,0.1178002,0.1180459,0.1182964,0.1185519,0.1188121,0.1190773,0.1193471,0.1196216,0.1199006,0.1201838,0.1204712,0.1207626,0.121058,0.1213572,0.12166,0.1219664,0.1222761,0.122589,0.1229049,0.1232236,0.1235446,0.1238678,0.1241928,0.1245192,0.1248466,0.1251749,0.1255037,0.1258328,0.1261619,0.126491,0.12682,0.1271485,0.1274765,0.1278037,0.1281301,0.1284555,0.1287798,0.1291027,0.1294241,0.1297439,0.1300618,0.1303777,0.1306914,0.1310031,0.1313126,0.1316203,0.131926,0.1322301,0.1325325,0.1328334,0.1331328,0.1334309,0.1337274,0.1340224,0.1343159,0.134608,0.1348987,0.1351882,0.1354765,0.1357638,0.1360499,0.136335,0.1366192,0.1369023,0.1371846,0.1374664,0.137748,0.13803,0.1383129,0.1385975,0.1388845,0.1391748,0.1394693,0.1397688,0.140074,0.1403859,0.140705,0.1410321,0.1413676,0.141712,0.1420655,0.1424283,0.1428008,0.143183,0.143575,0.1439767,0.1443881,0.144809,0.1452393,0.1456788,0.1461271,0.1465841,0.1470494,0.147523,0.1480045,0.1484939,0.1489909,0.1494956,0.1500078,0.1505274,0.1510545,0.151589,0.1521308,0.1526801,0.1532368,0.1538011,0.1543732,0.1549536,0.1555428,0.1561412,0.1567496,0.1573687,0.1579992,0.1586415,0.1592963,0.159964,0.1606448,0.161339,0.1620469,0.1627685,0.1635041,0.1642538,0.1650178,0.1657961,0.1665887,0.1673955,0.1682162,0.1690505,0.1698979,0.1707577,0.1716294,0.1725122,0.1734053,0.174308,0.1752196,0.1761391,0.1770656,0.1779983,0.1789366,0.1798796,0.1808266,0.1817771,0.1827304,0.1836859,0.1846431,0.1856015,0.1865606,0.1875198,0.1884789,0.189437,0.1903938,0.1913488,0.1923013,0.1932509,0.194197,0.1951394,0.1960773,0.1970105,0.1979387,0.1988615,0.1997783,0.2006889,0.2015926,0.2024893,0.2033783,0.2042593,0.2051317,0.2059952,0.2068493,0.2076935,0.2085274,0.2093506,0.2101626,0.2109632,0.2117519,0.2125283,0.213292,0.2140429,0.2147806,0.215505,0.2162159,0.2169131,0.2175967,0.2182665,0.2189225,0.2195645,0.2201925,0.2208062,0.2214058,0.2219913,0.2225627,0.2231203,0.2236641,0.2241946,0.224712,0.2252167,0.2257087,0.2261884,0.2266558,0.2271114,0.2275555,0.2279882,0.2284099,0.228821,0.2292216,0.2296119,0.229992,0.230362,0.2307221,0.2310724,0.2314132,0.2317448,0.2320677,0.2323821,0.2326886,0.2329876,0.2332795,0.2335645,0.2338431,0.2341157,0.2343827,0.2346444,0.2349008,0.2351522,0.2353989,0.2356411,0.2358792,0.2361131,0.2363432,0.2365697,0.2367927,0.2370121,0.2372283,0.2374411,0.2376506,0.2378564,0.2380588,0.2382575,0.2384527,0.2386441,0.2388319,0.2390158,0.2391961,0.2393726,0.2395453,0.2397142,0.2398789,0.2400395,0.2401958,0.2403478,0.2404952,0.240638,0.2407763,0.2409101,0.2410396,0.2411649,0.2412861,0.2414034,0.2415171,0.2416272,0.2417339,0.2418376,0.2419385,0.2420368,0.242133,0.2422272,0.2423199,0.2424113,0.2425017,0.2425913,0.2426802,0.2427687,0.2428569,0.242945,0.2430332,0.2431216,0.2432105,0.2433001,0.2433905,0.2434819,0.2435743,0.2436677,0.2437621,0.2438575,0.2439537,0.2440508,0.2441485,0.2442467,0.2443451,0.2444435,0.2445415,0.2446388,0.244735,0.2448296,0.2449223,0.2450128,0.2451006,0.2451855,0.2452671,0.2453451,0.2454191,0.2454889,0.2455541,0.2456144,0.2456699,0.2457206,0.2457664,0.2458072,0.2458431,0.2458739,0.2458996,0.2459201,0.2459353,0.245945,0.2459491,0.2459478,0.245941,0.2459289,0.2459116,0.245889,0.2458614,0.2458288,0.2457913,0.2457491,0.2457021,0.2456506,0.2455948,0.245535,0.2454714,0.2454042,0.2453337,0.24526,0.2451833,0.2451037,0.2450214,0.2449363,0.2448486,0.2447581,0.2446648,0.2445687,0.2444699,0.2443685,0.2442645,0.2441579,0.2440487,0.2439371,0.2438233,0.2437073,0.2435896,0.2434702,0.2433495,0.2432277,0.2431049,0.2429812,0.2428569,0.2427319,0.2426064,0.2424804,0.2423541,0.2422276,0.242101,0.2419744,0.2418483,0.2417226,0.2415973,0.2414726,0.2413487,0.2412254,0.2411029,0.240981,0.2408599,0.2407394,0.2406196,0.2405005,0.2403824,0.2402654,0.2401497,0.2400355,0.239923,0.2398124,0.2397038,0.2395972,0.2394926,0.2393896,0.2392884,0.2391885,0.23909,0.2389924,0.2388959,0.2388001,0.2387051,0.2386108,0.238517,0.2384237,0.2383308,0.2382382,0.2381453,0.2380521,0.2379581,0.237863,0.2377665,0.2376685,0.2375688,0.2374675,0.2373645,0.23726,0.2371542,0.2370473,0.2369396,0.2368314,0.2367228,0.2366142,0.2365058,0.2363978,0.2362904,0.2361838,0.2360781,0.2359735,0.2358703,0.2357688,0.2356692,0.2355719,0.2354771,0.2353854,0.2352966,0.2352112,0.2351292,0.2350509,0.2349765,0.2349062,0.2348402,0.2347788,0.2347221,0.2346704,0.2346237,0.2345823,0.234546,0.2345147,0.2344882,0.2344662,0.2344486,0.2344349,0.2344252,0.2344192,0.2344168,0.2344179,0.2344223,0.2344297,0.2344398,0.234452,0.2344657,0.2344803,0.2344952,0.2345099,0.234524,0.2345373,0.2345497,0.2345613,0.234572,0.2345819,0.2345906,0.2345982,0.2346043,0.2346087,0.2346109,0.2346104,0.2346071,0.2346008,0.2345913,0.2345787,0.2345629,0.2345437,0.2345213,0.2344956,0.2344667,0.2344344,0.2343987,0.2343597,0.2343174,0.2342718,0.2342232,0.2341715,0.2341167,0.2340588,0.2339981,0.2339344,0.2338679,0.2337986,0.2337265,0.2336515,0.2335738,0.2334929,0.2334089,0.2333216,0.233231,0.2331371,0.2330402,0.2329406,0.2328385,0.2327343,0.2326282,0.2325201,0.2324101,0.2322983,0.2321844,0.2320687,0.2319514,0.2318321,0.2317112,0.2315889,0.2314651,0.2313399,0.2312133,0.2310856,0.2309566,0.2308264,0.2306952,0.2305629,0.2304299,0.2302963,0.2301625,0.2300287,0.229895,0.2297617,0.2296287,0.2294963,0.2293645,0.2292334,0.2291031,0.2289739,0.2288459,0.2287194,0.2285947,0.2284721,0.2283521,0.2282347,0.2281201,0.2280083,0.2278992,0.2277926,0.2276885,0.2275866,0.2274867,0.2273885,0.2272917,0.2271961,0.2271015,0.2270079,0.2269152,0.2268235,0.2267326,0.2266426,0.2265534,0.2264649,0.226377,0.2262896,0.2262025,0.2261154,0.2260282,0.2259409,0.2258536,0.2257665,0.2256798,0.2255934,0.2255074,0.2254218,0.2253365,0.2252515,0.2251669,0.2250825,0.2249983,0.2249142,0.2248301,0.224746,0.2246617,0.2245769,0.2244912,0.2244043,0.2243162,0.2242268,0.2241363,0.2240446,0.2239521,0.2238593,0.2237663,0.2236733,0.2235805,0.2234881,0.2233965,0.223306,0.2232167,0.223129,0.2230432,0.2229595,0.2228782,0.2227995,0.2227238,0.2226515,0.2225827,0.2225176,0.2224562,0.2223988,0.2223454,0.2222965,0.2222522,0.2222126,0.2221782,0.2221495,0.2221268,0.2221103,0.2221005,0.2220975,0.2221016,0.2221134,0.2221331,0.2221611,0.2221979,0.222244,0.2222996,0.2223651,0.2224408,0.222527,0.2226239,0.2227318,0.2228507,0.2229808,0.2231223,0.2232756,0.2234404,0.2236169,0.2238048,0.224004,0.224214,0.2244347,0.2246654,0.2249057,0.225155,0.2254127,0.2256784,0.2259516,0.226232,0.2265194,0.2268136,0.2271143,0.2274217,0.2277354,0.2280555,0.2283817,0.228714,0.2290524,0.2293969,0.2297475,0.2301042,0.2304673,0.2308366,0.2312122,0.2315941,0.2319822,0.2323764,0.2327766,0.2331825,0.2335941,0.234011,0.234433,0.2348598,0.235291,0.2357265,0.2361659,0.2366091,0.2370558,0.237506,0.2379594,0.238416,0.2388759,0.2393388,0.239805,0.2402744,0.2407471,0.2412234,0.2417033,0.2421869,0.2426741,0.243165,0.2436593,0.2441567,0.2446567,0.2451589,0.2456624,0.246167,0.246672,0.2471766,0.2476802,0.2481819,0.2486807,0.2491758,0.2496662,0.2501511,0.2506296,0.2511011,0.2515652,0.2520217,0.2524703,0.252911,0.2533443,0.2537705,0.25419,0.2546034,0.2550113,0.2554141,0.2558122,0.256206,0.2565957,0.2569812,0.2573627,0.2577398,0.2581122,0.2584794,0.2588411,0.2591969,0.2595465,0.2598895,0.260226,0.2605558,0.2608787,0.2611948,0.2615042,0.2618068,0.2621026,0.2623919,0.2626749,0.2629519,0.2632232,0.2634894,0.2637509,0.2640083,0.2642622,0.2645131,0.2647613,0.2650072,0.2652509,0.2654923,0.2657312,0.2659677,0.2662016,0.2664328,0.2666612,0.2668869,0.2671103,0.2673311,0.2675496,0.2677656,0.2679792,0.2681903,0.2683989,0.2686052,0.2688094,0.2690118,0.2692129,0.2694131,0.2696127,0.2698119,0.270011,0.2702097,0.2704077,0.2706046,0.2707993,0.2709912,0.2711788,0.2713607,0.2715354,0.271701,0.2718557,0.2719977,0.2721248,0.272235,0.2723269,0.2723984,0.2724485,0.2724759,0.2724801,0.272461,0.2724187,0.2723539,0.2722675,0.272161,0.2720359,0.271894,0.2717376,0.2715688,0.2713901,0.2712042,0.2710135,0.2708205,0.2706273,0.2704359,0.2702481,0.2700652,0.2698881,0.2697178,0.2695544,0.2693984,0.2692495,0.2691076,0.2689725,0.2688439,0.2687216,0.2686051,0.268494,0.2683877,0.2682856,0.268187,0.2680913,0.2679979,0.2679064,0.2678164,0.2677278,0.2676403,0.2675536,0.2674676,0.2673821,0.2672969,0.2672116,0.267126,0.2670399,0.2669533,0.2668661,0.2667783,0.2666899,0.2666008,0.2665109,0.2664201,0.266328,0.2662343,0.2661388,0.2660409,0.2659402,0.2658361,0.2657278,0.2656147,0.265496,0.2653713,0.2652397,0.2651006,0.2649533,0.2647972,0.264632,0.2644575,0.2642734,0.2640799,0.2638775,0.2636665,0.2634475,0.2632212,0.2629883,0.2627498,0.2625066,0.2622599,0.2620108,0.2617602,0.2615094,0.2612592,0.2610105,0.2607639,0.2605201,0.2602796,0.2600427,0.2598099,0.2595812,0.2593567,0.2591364,0.25892,0.2587076,0.258499,0.258294,0.2580928,0.2578955,0.2577022,0.2575126,0.257327,0.2571449,0.2569663,0.2567908,0.2566183,0.2564489,0.2562824,0.256119,0.2559589,0.2558022,0.2556489,0.2554988,0.255352,0.2552083,0.2550675,0.2549294,0.2547938,0.2546606,0.2545295,0.2544008,0.2542744,0.2541503,0.2540284,0.2539088,0.2537913,0.2536756,0.2535615,0.2534487,0.2533368,0.2532255,0.2531147,0.2530041,0.2528937,0.2527834,0.252673,0.2525626,0.2524518,0.2523406,0.2522288,0.2521163,0.2520033,0.2518899,0.2517762,0.2516626,0.2515492,0.2514361,0.2513233,0.2512111,0.2510993,0.2509879,0.2508771,0.250767,0.2506576,0.2505492,0.2504418,0.2503356,0.2502307,0.2501271,0.2500249,0.2499241,0.2498247,0.2497264,0.2496292,0.2495326,0.2494364,0.2493401,0.2492435,0.2491463,0.2490484,0.2489499,0.2488506,0.2487506,0.2486499,0.2485484,0.248446,0.2483426,0.248238,0.2481318,0.2480241,0.2479145,0.2478031,0.2476896,0.2475743,0.2474571,0.2473383,0.2472181,0.2470967,0.2469741,0.2468506,0.2467258,0.2465998,0.2464722,0.2463427,0.2462113,0.2460778,0.2459421,0.2458043,0.2456644,0.2455224,0.2453784,0.2452326,0.2450849,0.2449356,0.244785,0.2446333,0.2444809,0.2443282,0.2441758,0.2440238,0.2438725,0.2437222,0.2435729,0.2434248,0.2432778,0.2431322,0.2429879,0.2428453,0.2427043,0.2425652,0.2424283,0.2422937,0.2421616,0.2420324,0.2419062,0.2417831,0.2416632,0.2415466,0.2414334,0.2413236,0.2412177,0.2411158,0.2410185,0.2409262,0.2408393,0.2407582,0.2406831,0.2406141,0.2405512,0.2404944,0.2404435,0.2403987,0.24036,0.2403277,0.2403021,0.2402835,0.2402723,0.2402687,0.2402728,0.2402849,0.2403048,0.2403325,0.240368,0.2404111,0.2404621,0.2405209,0.2405878,0.240663,0.2407469,0.2408398,0.2409419,0.2410533,0.241174,0.2413041,0.2414433,0.2415919,0.2417498,0.2419175,0.2420952,0.2422836,0.2424833,0.242695,0.2429195,0.2431579,0.2434111,0.2436802,0.2439664,0.2442708,0.2445944,0.2449382,0.2453029,0.2456891,0.2460974,0.2465281,0.2469814,0.2474577,0.2479571,0.2484797,0.2490256,0.2495949,0.2501876,0.2508038,0.2514435,0.2521071,0.252795,0.2535078,0.2542464,0.2550116,0.2558045,0.2566263,0.2574784,0.2583621,0.2592787,0.2602295,0.2612159,0.2622391,0.2633004,0.264401,0.2655422,0.2667251,0.2679508,0.2692202,0.2705341,0.2718929,0.2732971,0.2747468,0.2762421,0.2777828,0.2793684,0.2809984,0.282672,0.2843882,0.2861455,0.2879424,0.2897773,0.2916486,0.2935544,0.2954933,0.297464,0.2994653,0.3014965,0.3035573,0.3056475,0.3077669,0.3099155,0.3120932,0.3142996,0.3165338,0.3187948,0.3210812,0.3233908,0.3257215,0.3280703,0.330434,0.3328089,0.3351911,0.3375764,0.3399605,0.3423389,0.3447075,0.3470623,0.3493999,0.351717,0.3540108,0.3562789,0.3585194,0.3607307,0.3629116,0.3650611,0.3671788,0.3692643,0.3713174,0.3733381,0.375326,0.377281,0.3792025,0.3810901,0.3829433,0.3847617,0.386545,0.3882929,0.3900054,0.3916821,0.3933232,0.3949283,0.3964972,0.3980298,0.3995255,0.4009842,0.4024056,0.4037893,0.405135,0.4064426,0.4077118,0.4089423,0.4101338,0.4112862,0.4123993,0.413473,0.4145074,0.4155029,0.4164597,0.4173782,0.4182591,0.4191026,0.4199092,0.4206794,0.4214135,0.4221119,0.4227748,0.4234028,0.4239963,0.4245555,0.4250809,0.4255727,0.4260313,0.4264571,0.4268505,0.4272119,0.427542,0.4278412,0.4281101,0.4283491,0.4285588,0.4287395,0.4288919,0.4290163,0.4291132,0.4291832,0.4292268,0.4292448,0.4292377,0.4292065,0.4291518,0.4290747,0.4289759,0.4288561,0.4287162,0.4285567,0.4283781,0.4281814,0.427967,0.427736,0.4274891,0.4272272,0.426951,0.4266613,0.4263586,0.4260437,0.4257175,0.4253806,0.4250339,0.4246782,0.4243143,0.4239426,0.4235638,0.4231783,0.4227865,0.4223887,0.4219851,0.4215764,0.421163,0.4207456,0.4203252,0.4199027,0.419479,0.4190552,0.4186321,0.4182102,0.4177902,0.4173722,0.4169567,0.4165435,0.416133,0.4157251,0.4153197,0.4149168,0.4145162,0.4141178,0.4137213,0.4133265,0.4129333,0.4125416,0.4121513,0.4117625,0.411375,0.4109892,0.410605,0.4102224,0.4098415,0.4094623,0.4090844,0.4087079,0.408332,0.4079566,0.4075808,0.4072041,0.4068261,0.4064463,0.4060644,0.4056804,0.405294,0.4049051,0.4045135,0.4041188,0.4037208,0.4033192,0.4029139,0.402505,0.4020926,0.4016769,0.401258,0.4008361,0.4004111,0.3999832,0.3995524,0.3991189,0.398683,0.3982447,0.3978048,0.3973635,0.3969212,0.3964782,0.3960347,0.3955908,0.3951463,0.3947012,0.3942557,0.3938099,0.3933642,0.3929194,0.3924761,0.392035,0.3915967,0.3911614,0.3907294,0.3903009,0.3898762,0.3894556,0.3890395,0.3886282,0.3882222,0.3878217,0.3874269,0.3870378,0.3866548,0.3862782,0.3859082,0.3855456,0.3851905,0.3848433,0.3845044,0.3841738,0.3838518,0.3835385,0.3832342,0.3829392,0.3826538,0.3823786,0.3821138,0.3818597,0.3816165,0.3813843,0.3811631,0.3809528,0.3807535,0.3805652,0.3803879,0.3802215,0.3800661,0.3799219,0.3797891,0.3796679,0.3795587,0.3794618,0.3793774,0.3793058,0.3792472,0.3792014,0.3791683,0.3791477,0.3791395,0.3791436,0.37916,0.3791891,0.3792312,0.3792867,0.3793559,0.379439,0.3795361,0.3796476,0.3797735,0.3799141,0.3800697,0.3802406,0.3804269,0.3806287,0.3808461,0.3810789,0.381327,0.3815904,0.381869,0.3821627,0.3824716,0.3827956,0.3831347,0.3834889,0.3838582,0.3842427,0.3846425,0.3850575,0.3854879,0.3859334,0.386394,0.3868695,0.3873599,0.3878651,0.3883854,0.3889208,0.3894714,0.3900371,0.3906177,0.3912125,0.3918209,0.3924421,0.3930754,0.3937205,0.3943773,0.3950458,0.3957264,0.3964189,0.3971232,0.3978387,0.3985645,0.3992996,0.400043,0.4007933,0.4015494,0.4023099,0.4030735,0.4038385,0.4046035,0.4053668,0.406127,0.4068826,0.4076325,0.4083756,0.4091106,0.4098366,0.4105525,0.4112568,0.411948,0.4126247,0.413285,0.413927,0.4145493,0.4151502,0.4157284,0.416283,0.4168128,0.4173173,0.4177959,0.418248,0.4186729,0.4190703,0.4194395,0.4197801,0.420092,0.420375,0.4206293,0.420855,0.4210529,0.4212236,0.4213681,0.4214877,0.4215834,0.4216565,0.4217081,0.4217393,0.4217512,0.4217454,0.4217231,0.421686,0.4216355,0.421573,0.4214997,0.4214167,0.4213252,0.4212264,0.4211215,0.4210115,0.4208976,0.4207807,0.4206617,0.4205415,0.4204205,0.4202996,0.4201798,0.4200618,0.419947,0.4198363,0.4197305,0.4196305,0.4195367,0.4194489,0.4193669,0.4192905,0.4192193,0.4191531,0.4190919,0.4190357,0.4189851,0.4189402,0.4189016,0.4188693,0.4188435,0.4188243,0.4188118,0.4188061,0.4188071,0.4188144,0.4188279,0.4188472,0.4188718,0.4189015,0.418936,0.418975,0.4190187,0.4190676,0.4191217,0.4191813,0.4192463,0.4193165,0.4193919,0.4194719,0.4195563,0.4196445,0.4197364,0.4198317,0.41993,0.4200308,0.4201335,0.420238,0.4203442,0.4204524,0.4205626,0.4206756,0.4207913,0.4209096,0.4210303,0.4211525,0.4212755,0.4213988,0.4215219,0.4216447,0.4217672,0.4218894,0.4220115,0.4221335,0.4222556,0.4223782,0.4225014,0.4226258,0.4227514,0.4228778,0.4230047,0.4231312,0.4232568,0.4233811,0.4235039,0.4236256,0.4237464,0.4238669,0.4239873,0.4241079,0.4242287,0.4243492,0.4244688,0.4245875,0.424705,0.4248214,0.4249368,0.4250516,0.4251657,0.4252793,0.4253925,0.4255054,0.4256183,0.4257315,0.4258455,0.4259605,0.4260765,0.4261935,0.4263115,0.4264303,0.4265496,0.4266693,0.4267898,0.4269115,0.4270347,0.4271603,0.4272884,0.4274195,0.4275539,0.4276918,0.4278335,0.4279793,0.4281296,0.4282851,0.4284461,0.4286132,0.4287868,0.4289673,0.4291545,0.4293487,0.4295495,0.429757,0.429971,0.4301915,0.4304185,0.4306518,0.4308912,0.431136,0.4313855,0.4316389,0.4318951,0.4321531,0.4324117,0.43267,0.4329269,0.4331816,0.4334332,0.4336806,0.433923,0.4341594,0.4343889,0.4346111,0.4348252,0.4350313,0.4352294,0.4354201,0.435604,0.4357817,0.4359536,0.4361199,0.4362805,0.4364357,0.436586,0.4367319,0.4368744,0.4370145,0.4371532,0.4372917,0.437431,0.4375718,0.4377144,0.4378589,0.4380051,0.4381528,0.4383012,0.4384495,0.4385971,0.4387434,0.4388881,0.4390311,0.4391721,0.4393111,0.4394476,0.4395811,0.4397108,0.439836,0.4399562,0.440071,0.4401806,0.440285,0.4403842,0.440478,0.4405658,0.4406465,0.4407192,0.4407828,0.4408365,0.4408798,0.4409122,0.4409336,0.4409438,0.4409427,0.4409297,0.4409043,0.4408655,0.4408125,0.4407453,0.4406638,0.4405685,0.4404604,0.4403405,0.44021,0.4400696,0.4399199,0.4397613,0.4395941,0.4394185,0.4392347,0.4390427,0.4388429,0.4386355,0.4384209,0.4382001,0.4379741,0.4377438,0.4375099,0.4372724,0.4370311,0.4367854,0.4365345,0.4362779,0.4360152,0.4357465,0.4354723,0.4351932,0.4349099,0.4346223,0.4343304,0.4340337,0.433732,0.4334247,0.4331118,0.4327934,0.4324702,0.4321427,0.4318118,0.4314782,0.4311425,0.4308059,0.4304694,0.4301342,0.4298011,0.4294707,0.4291437,0.4288198,0.428499,0.428181,0.4278655,0.4275526,0.4272424,0.4269351,0.4266309,0.4263304,0.4260335,0.4257405,0.4254515,0.4251668,0.4248863,0.4246098,0.4243373,0.4240682,0.4238023,0.4235389,0.4232776,0.4230183,0.4227611,0.422506,0.422253,0.422002,0.4217525,0.4215038,0.4212554,0.4210065,0.4207566,0.4205057,0.4202538,0.4200011,0.419748,0.4194949,0.419242,0.4189895,0.4187377,0.4184865,0.4182361,0.4179872,0.41774,0.4174948,0.4172524,0.4170138,0.4167802,0.4165528,0.4163325,0.4161201,0.4159161,0.4157209,0.4155349,0.4153583,0.4151914,0.4150348,0.4148895,0.4147556,0.4146338,0.4145244,0.4144279,0.4143452,0.4142767,0.4142232,0.4141853,0.4141635,0.4141579,0.4141691,0.4141977,0.4142445,0.4143108,0.414398,0.414507,0.4146388,0.414794,0.414973,0.4151761,0.4154031,0.4156538,0.4159276,0.4162246,0.416544,0.4168856,0.417249,0.4176341,0.4180411,0.4184703,0.4189222,0.4193973,0.4198958,0.420418,0.4209641,0.4215338,0.4221265,0.4227416,0.4233788,0.4240379,0.4247186,0.4254205,0.4261439,0.4268885,0.4276538,0.4284393,0.4292439,0.4300662,0.4309049,0.4317585,0.4326258,0.4335061,0.4343984,0.435302,0.4362161,0.4371399,0.4380728,0.4390147,0.4399652,0.440924,0.4418911,0.4428661,0.4438483,0.4448366,0.44583,0.4468271,0.4478267,0.4488276,0.4498287,0.4508297,0.4518301,0.4528297,0.4538285,0.4548263,0.4558232,0.4568195,0.457815,0.4588095,0.4598027,0.460794,0.461782,0.4627652,0.4637417,0.4647098,0.4656685,0.4666165,0.4675531,0.4684779,0.4693905,0.4702901,0.4711759,0.4720471,0.472903,0.4737434,0.4745679,0.4753761,0.4761667,0.4769386,0.47769,0.4784198,0.4791276,0.4798135,0.4804784,0.4811229,0.4817473,0.4823523,0.482938,0.4835044,0.4840514,0.4845794,0.4850895,0.4855836,0.4860645,0.4865353,0.4869984,0.487456,0.4879092,0.4883586,0.4888045,0.4892469,0.489686,0.4901216,0.4905542,0.4909841,0.491412,0.491839,0.4922661,0.4926943,0.4931245,0.4935573,0.4939928,0.4944311,0.4948718,0.4953148,0.4957603,0.4962084,0.4966586,0.4971105,0.4975632,0.4980159,0.4984682,0.4989199,0.4993716,0.4998242,0.5002788,0.5007359,0.5011963,0.5016602,0.5021275,0.502598,0.5030721,0.5035499,0.5040315,0.5045164,0.505003,0.5054893,0.5059724,0.5064494,0.5069181,0.5073772,0.5078265,0.5082664,0.5086982,0.5091228,0.5095412,0.5099534,0.5103589,0.510757,0.5111466,0.5115265,0.5118956,0.5122523,0.5125946,0.5129199,0.5132252,0.5135068,0.5137608,0.5139834,0.5141705,0.5143185,0.5144234,0.5144811,0.5144876,0.5144389,0.5143318,0.5141644,0.5139363,0.5136484,0.5133032,0.512904,0.5124554,0.5119628,0.5114322,0.5108711,0.5102879,0.509692,0.5090927,0.5084994,0.5079201,0.5073614,0.5068278,0.5063227,0.5058478,0.5054046,0.5049947,0.5046198,0.5042818,0.5039826,0.5037236,0.5035053,0.5033274,0.5031881,0.5030845,0.5030134,0.5029705,0.502952,0.5029548,0.5029767,0.5030161,0.5030718,0.5031438,0.5032315,0.5033343,0.5034516,0.5035824,0.5037253,0.503879,0.5040424,0.5042152,0.5043974,0.5045888,0.5047901,0.5050009,0.5052218,0.5054533,0.5056959,0.5059498,0.5062146,0.5064898,0.5067734,0.5070636,0.5073575,0.5076534,0.5079489,0.5082424,0.5085328,0.5088193,0.5091013,0.5093771,0.5096452,0.5099038,0.5101516,0.5103868,0.5106078,0.5108123,0.5109982,0.5111634,0.5113047,0.5114192,0.5115034,0.5115539,0.5115682,0.5115447,0.5114836,0.5113857,0.5112527,0.5110861,0.5108875,0.5106574,0.5103976,0.5101101,0.5097984,0.5094676,0.5091239,0.5087733,0.5084218,0.5080743,0.5077347,0.5074058,0.5070894,0.5067866,0.5064985,0.5062255,0.5059683,0.5057269,0.5055011,0.5052904,0.5050939,0.5049107,0.5047386,0.504576,0.5044212,0.5042726,0.5041285,0.5039878,0.5038502,0.5037153,0.5035819,0.5034488,0.5033147,0.5031782,0.5030395,0.5028992,0.5027577,0.5026165,0.5024775,0.502342,0.5022106,0.5020838,0.5019621,0.5018452,0.5017336,0.5016284,0.5015305,0.5014411,0.5013607,0.5012891,0.5012271,0.5011747,0.5011323,0.5011005,0.5010798,0.5010706,0.5010732,0.5010875,0.5011123,0.5011472,0.5011909,0.5012426,0.5013015,0.501366,0.5014347,0.5015071,0.5015825,0.501661,0.5017425,0.5018271,0.501914,0.5020027,0.5020928,0.5021843,0.5022775,0.5023733,0.5024726,0.5025757,0.5026827,0.5027938,0.5029082,0.5030258,0.5031458,0.5032681,0.5033932,0.5035209,0.5036511,0.5037842,0.5039206,0.5040605,0.5042042,0.5043513,0.5045007,0.5046526,0.5048074,0.504966,0.5051299,0.5053002,0.5054779,0.5056635,0.5058566,0.5060574,0.506266,0.506483,0.5067089,0.5069438,0.5071881,0.5074409,0.5077016,0.5079693,0.5082424,0.5085201,0.5088024,0.509089,0.5093808,0.5096788,0.5099843,0.5102986,0.5106227,0.510956,0.5112983,0.5116479,0.5120031,0.5123625,0.5127256,0.5130919,0.5134621,0.5138373,0.5142185,0.5146067,0.5150021,0.5154042,0.5158123,0.5162257,0.5166438,0.5170676,0.5174975,0.5179343,0.5183783,0.5188295,0.5192876,0.5197535,0.5202264,0.5207055,0.5211903,0.5216804,0.5221766,0.5226799,0.5231907,0.5237098,0.5242368,0.5247709,0.5253099,0.5258535,0.5264009,0.5269533,0.5275128,0.528082,0.5286633,0.5292587,0.5298684,0.5304921,0.531129,0.5317787,0.5324416,0.5331186,0.5338098,0.5345149,0.5352327,0.5359615,0.5366998,0.5374458,0.5381988,0.5389579,0.539723,0.5404946,0.5412726,0.5420573,0.5428475,0.5436413,0.5444366,0.5452316,0.5460252,0.5468174,0.5476085,0.5483987,0.5491884,0.5499772,0.5507644,0.5515504,0.552335,0.5531187,0.5539024,0.5546858,0.5554701,0.5562565,0.5570464,0.5578406,0.558639,0.5594413,0.5602459,0.561051,0.5618551,0.5626565,0.5634545,0.5642486,0.5650384,0.5658238,0.5666041,0.5673795,0.5681493,0.5689119,0.5696654,0.5704082,0.5711385,0.5718555,0.5725601,0.5732524,0.5739338,0.5746052,0.5752673,0.5759193,0.5765598,0.5771862,0.5777957,0.5783858,0.5789541,0.5794996,0.5800226,0.5805246,0.5810078,0.5814758,0.5819322,0.5823801,0.5828215,0.5832577,0.5836884,0.584112,0.5845265,0.5849299,0.5853205,0.5856978,0.5860627,0.586417,0.5867623,0.5871005,0.5874324,0.5877567,0.5880709,0.5883719,0.5886579,0.5889277,0.5891821,0.5894231,0.5896535,0.5898758,0.5900924,0.5903045,0.5905117,0.5907128,0.5909058,0.5910877,0.5912563,0.5914102,0.5915496,0.5916758,0.5917895,0.5918915,0.5919825,0.5920624,0.5921307,0.5921872,0.5922326,0.5922673,0.5922927,0.5923102,0.5923209,0.5923264,0.5923275,0.5923245,0.5923174,0.5923061,0.5922901,0.5922695,0.5922444,0.5922145,0.5921792,0.5921384,0.592091,0.5920353,0.5919701,0.5918889
F24-3417,CIAT-707,Alysicarpus ovalifolius,Herbaceous_legumes,90.09,12.07,87.93,25.4,25.44,54.11,30.58,66.26,147.01,65.97,4.49,13.54,16.25,23.89,36.44,125.18,0.9412118,0.9424739,0.9436803,0.9448331,0.9459357,0.9469907,0.9480025,0.9489718,0.9498984,0.950785,0.9516312,0.9524385,0.9532065,0.9539368,0.9546317,0.9552944,0.9559259,0.9565302,0.957109,0.9576668,0.958203,0.9587193,0.9592175,0.9596968,0.9601578,0.9605982,0.9610214,0.9614252,0.961809,0.9621746,0.9625255,0.9628588,0.9631764,0.9634788,0.96377,0.9640473,0.9643093,0.964555,0.964783,0.9649925,0.9651811,0.9653458,0.965484,0.9655961,0.9656804,0.9657364,0.9657657,0.9657685,0.9657433,0.965692,0.9656155,0.9655131,0.9653864,0.9652358,0.9650624,0.9648654,0.9646455,0.9644011,0.9641331,0.9638433,0.963529,0.9631923,0.962834,0.9624522,0.9620512,0.9616286,0.9611883,0.960733,0.9602618,0.9597765,0.9592788,0.9587694,0.958249,0.9577173,0.9571747,0.9566197,0.9560488,0.9554616,0.9548606,0.9542489,0.9536275,0.9529974,0.9523594,0.9517179,0.9510757,0.9504348,0.949796,0.9491601,0.9485255,0.9478902,0.9472532,0.9466143,0.9459713,0.9453236,0.9446707,0.9440093,0.9433362,0.9426484,0.941946,0.9412276,0.9404899,0.9397348,0.9389631,0.9381769,0.9373748,0.9365559,0.9357237,0.934878,0.9340175,0.9331447,0.932258,0.9313537,0.9304317,0.9294949,0.9285401,0.9275639,0.9265627,0.9255384,0.9244915,0.9234223,0.9223335,0.9212248,0.9200929,0.9189388,0.9177619,0.9165624,0.9153426,0.9141017,0.9128392,0.9115564,0.9102534,0.9089321,0.9075929,0.9062368,0.9048659,0.9034826,0.9020882,0.9006815,0.8992635,0.8978359,0.8963999,0.8949569,0.8935074,0.8920511,0.8905907,0.8891274,0.88766,0.8861874,0.8847083,0.8832219,0.8817279,0.8802279,0.8787224,0.8772136,0.8757057,0.8742003,0.8726975,0.8711958,0.8696951,0.8681988,0.8667077,0.8652263,0.8637553,0.8622951,0.8608459,0.859408,0.8579811,0.8565657,0.855163,0.8537744,0.8523998,0.8510403,0.8496953,0.8483627,0.8470432,0.8457397,0.8444556,0.8431922,0.8419498,0.8407299,0.8395327,0.8383596,0.8372113,0.8360885,0.8349923,0.8339224,0.8328815,0.8318686,0.8308824,0.8299237,0.8289914,0.8280864,0.8272104,0.8263624,0.8255399,0.8247397,0.8239584,0.8231936,0.8224458,0.8217139,0.8209959,0.8202899,0.8195937,0.8189027,0.8182173,0.817535,0.8168535,0.8161705,0.8154829,0.8147878,0.8140836,0.8133665,0.8126336,0.8118818,0.8111089,0.8103119,0.8094885,0.8086359,0.8077499,0.8068309,0.8058783,0.8048905,0.803866,0.8028041,0.8017039,0.8005624,0.7993807,0.7981607,0.7969029,0.7956098,0.7942816,0.7929195,0.7915259,0.7901039,0.7886554,0.7871841,0.7856947,0.7841894,0.782672,0.7811473,0.7796195,0.7780938,0.7765753,0.7750689,0.7735798,0.7721128,0.7706729,0.7692654,0.7678952,0.7665665,0.7652842,0.7640523,0.7628752,0.7617561,0.7606981,0.7597026,0.7587723,0.7579089,0.7571141,0.7563878,0.7557301,0.7551398,0.7546159,0.7541556,0.7537575,0.753418,0.7531327,0.7528981,0.7527108,0.7525645,0.7524534,0.7523713,0.7523125,0.7522701,0.7522374,0.7522067,0.7521714,0.7521247,0.7520585,0.7519667,0.7518406,0.7516752,0.7514651,0.7512046,0.750887,0.7505094,0.7500684,0.7495611,0.7489854,0.7483392,0.7476203,0.7468297,0.7459679,0.7450367,0.7440373,0.7429726,0.7418454,0.7406583,0.7394161,0.7381232,0.7367825,0.7353994,0.7339796,0.7325279,0.7310489,0.7295476,0.7280278,0.726494,0.7249513,0.7234038,0.7218571,0.7203139,0.7187761,0.717247,0.7157285,0.7142255,0.7127378,0.7112664,0.7098113,0.7083735,0.706953,0.7055496,0.7041627,0.7027914,0.7014349,0.7000914,0.6987601,0.6974393,0.6961275,0.6948224,0.6935229,0.6922268,0.6909324,0.6896385,0.688343,0.6870453,0.6857429,0.6844351,0.6831219,0.6818021,0.6804763,0.6791436,0.6778057,0.6764626,0.6751145,0.673762,0.6724061,0.6710478,0.6696889,0.6683302,0.6669735,0.6656204,0.6642723,0.6629303,0.6615981,0.6602777,0.658972,0.6576837,0.6564151,0.6551695,0.6539497,0.6527588,0.6516001,0.6504767,0.649392,0.6483469,0.6473458,0.6463929,0.6454926,0.644649,0.6438658,0.6431462,0.6424937,0.6419114,0.6414013,0.6409647,0.640605,0.6403245,0.6401255,0.6400119,0.6399856,0.6400486,0.6402026,0.6404492,0.64079,0.6412256,0.6417567,0.6423838,0.6431065,0.6439244,0.6448346,0.6458355,0.6469271,0.6481078,0.6493758,0.6507294,0.6521655,0.6536788,0.655264,0.6569167,0.6586319,0.6604041,0.662227,0.6640944,0.6659997,0.6679357,0.6698952,0.6718705,0.6738536,0.6758372,0.6778126,0.6797715,0.6817061,0.6836091,0.6854724,0.6872889,0.6890516,0.6907524,0.6923847,0.6939422,0.6954189,0.6968104,0.6981114,0.6993183,0.7004271,0.7014353,0.7023406,0.7031416,0.7038363,0.7044255,0.704909,0.7052878,0.7055632,0.7057371,0.7058125,0.7057927,0.7056805,0.7054802,0.7051965,0.7048341,0.704397,0.7038912,0.7033205,0.7026915,0.7020098,0.7012822,0.700515,0.6997159,0.6988903,0.6980455,0.6971874,0.6963215,0.6954552,0.6945947,0.6937457,0.6929154,0.6921099,0.6913358,0.6905981,0.6899006,0.6892506,0.6886542,0.6881163,0.6876423,0.687236,0.6869029,0.6866477,0.6864743,0.6863868,0.6863922,0.6864923,0.686691,0.6869943,0.6874045,0.6879255,0.6885619,0.6893151,0.6901884,0.6911865,0.6923109,0.6935641,0.6949492,0.6964685,0.6981244,0.6999186,0.7018511,0.7039243,0.7061396,0.7084976,0.7109974,0.7136397,0.7164228,0.7193466,0.7224096,0.7256089,0.7289435,0.7324106,0.736007,0.7397295,0.7435744,0.7475374,0.7516139,0.7557991,0.7600876,0.7644734,0.7689506,0.7735137,0.7781548,0.7828673,0.7876428,0.7924727,0.7973486,0.8022611,0.8072014,0.8121592,0.8171241,0.8220859,0.8270337,0.8319558,0.8368405,0.8416759,0.8464498,0.8511502,0.8557644,0.8602793,0.864684,0.8689646,0.8731078,0.8771005,0.8809301,0.884585,0.8880517,0.8913178,0.8943713,0.8972002,0.8997937,0.9021413,0.9042325,0.9060576,0.9076078,0.9088748,0.9098511,0.9105305,0.9109071,0.9109776,0.9107391,0.9101878,0.9093217,0.9081408,0.9066467,0.9048409,0.9027265,0.9003091,0.8975934,0.8945864,0.891296,0.8877313,0.8839022,0.879819,0.8754936,0.8709388,0.8661674,0.8611928,0.8560288,0.8506889,0.8451874,0.8395389,0.8337566,0.827854,0.8218441,0.8157399,0.8095536,0.8032972,0.7969813,0.7906162,0.7842115,0.7777767,0.7713191,0.7648456,0.7583625,0.751875,0.7453882,0.7389063,0.7324321,0.7259684,0.7195168,0.7130792,0.7066566,0.7002498,0.6938591,0.6874856,0.6811281,0.6747864,0.6684601,0.6621486,0.6558517,0.6495689,0.6433003,0.6370455,0.6308051,0.6245794,0.6183695,0.6121761,0.6060011,0.5998457,0.5937127,0.5876044,0.5815238,0.5754741,0.5694593,0.5634823,0.5575473,0.551658,0.5458189,0.540034,0.5343075,0.5286433,0.5230458,0.5175192,0.5120673,0.5066935,0.5014014,0.4961938,0.491073,0.4860422,0.4811032,0.4762581,0.4715077,0.4668533,0.4622954,0.4578357,0.453472,0.4492035,0.4450291,0.4409473,0.4369565,0.4330543,0.4292386,0.4255065,0.4218556,0.4182827,0.4147847,0.4113586,0.4080008,0.4047084,0.4014778,0.398306,0.3951898,0.3921264,0.3891134,0.3861471,0.3832253,0.3803453,0.3775053,0.3747031,0.3719369,0.3692054,0.366507,0.3638405,0.3612053,0.3586008,0.3560264,0.3534818,0.3509668,0.3484816,0.3460265,0.3436011,0.3412059,0.3388413,0.3365075,0.3342044,0.3319331,0.329694,0.3274873,0.3253134,0.3231729,0.3210659,0.3189931,0.3169549,0.3149509,0.3129816,0.3110466,0.3091464,0.3072807,0.3054495,0.3036527,0.3018903,0.300162,0.2984678,0.2968071,0.295179,0.2935835,0.2920201,0.2904882,0.2889872,0.2875167,0.2860758,0.2846639,0.2832802,0.2819238,0.2805941,0.2792902,0.2780113,0.2767568,0.2755259,0.2743181,0.2731321,0.271967,0.2708221,0.2696962,0.2685889,0.2674988,0.2664255,0.2653679,0.2643252,0.2632965,0.2622807,0.2612772,0.2602853,0.2593046,0.2583347,0.2573746,0.256424,0.2554829,0.2545511,0.2536282,0.2527135,0.2518069,0.2509081,0.2500166,0.2491322,0.2482546,0.2473837,0.2465195,0.245662,0.2448108,0.2439658,0.2431273,0.2422952,0.2414696,0.2406504,0.2398373,0.2390306,0.2382304,0.2374367,0.2366497,0.2358687,0.2350941,0.2343257,0.2335639,0.2328087,0.2320601,0.2313181,0.2305825,0.2298535,0.2291308,0.2284145,0.2277044,0.2270005,0.2263028,0.2256111,0.2249254,0.2242455,0.2235716,0.2229033,0.2222409,0.2215842,0.2209333,0.2202876,0.2196476,0.2190128,0.2183828,0.2177574,0.2171367,0.2165208,0.215909,0.2153012,0.2146975,0.2140976,0.2135009,0.2129072,0.2123166,0.2117291,0.2111446,0.2105626,0.2099831,0.2094065,0.2088322,0.2082603,0.2076906,0.2071235,0.206558,0.2059945,0.2054335,0.2048743,0.2043175,0.2037629,0.2032107,0.2026606,0.202113,0.2015676,0.2010244,0.2004838,0.1999455,0.1994097,0.1988765,0.1983457,0.1978173,0.1972915,0.1967682,0.1962473,0.195729,0.1952135,0.194701,0.1941918,0.1936859,0.1931835,0.1926848,0.1921898,0.1916985,0.1912112,0.1907277,0.1902479,0.1897719,0.1892997,0.1888315,0.1883669,0.187906,0.1874489,0.1869954,0.1865457,0.1860996,0.1856569,0.1852174,0.1847815,0.1843489,0.1839196,0.1834934,0.1830704,0.1826506,0.1822333,0.181819,0.1814075,0.1809992,0.1805932,0.1801898,0.179789,0.1793903,0.1789936,0.1785994,0.1782066,0.1778156,0.1774269,0.17704,0.1766551,0.1762723,0.1758913,0.1755121,0.1751353,0.1747604,0.1743872,0.1740156,0.1736459,0.1732779,0.1729119,0.1725478,0.1721854,0.1718245,0.1714647,0.1711057,0.1707482,0.1703919,0.1700373,0.1696844,0.1693333,0.1689839,0.1686363,0.1682907,0.1679466,0.1676042,0.1672632,0.1669239,0.1665862,0.16625,0.1659153,0.1655822,0.1652508,0.164921,0.1645926,0.1642658,0.1639408,0.1636184,0.1632975,0.1629781,0.16266,0.1623434,0.1620282,0.1617144,0.1614022,0.1610916,0.1607829,0.1604758,0.1601703,0.1598665,0.1595637,0.1592622,0.1589622,0.1586635,0.1583662,0.1580703,0.157776,0.1574832,0.1571922,0.1569033,0.1566161,0.1563303,0.156046,0.1557634,0.1554821,0.1552025,0.154924,0.1546468,0.1543709,0.1540956,0.1538205,0.1535459,0.1532722,0.1529995,0.1527285,0.152459,0.1521908,0.151924,0.1516588,0.1513947,0.1511319,0.1508706,0.1506106,0.1503534,0.1500974,0.149843,0.149591,0.1493407,0.1490916,0.1488438,0.1485965,0.1483504,0.1481046,0.1478596,0.1476151,0.1473718,0.1471294,0.1468881,0.1466482,0.1464096,0.1461725,0.1459367,0.145702,0.1454685,0.1452365,0.1450058,0.1447765,0.1445486,0.1443219,0.1440974,0.143875,0.1436533,0.1434323,0.1432127,0.1429944,0.1427775,0.1425617,0.1423473,0.1421337,0.1419215,0.1417106,0.141501,0.1412925,0.1410849,0.1408786,0.1406734,0.1404694,0.140267,0.1400659,0.1398662,0.1396677,0.1394703,0.1392739,0.1390792,0.1388855,0.1386927,0.138501,0.13831,0.1381199,0.1379307,0.1377422,0.1375545,0.1373676,0.1371817,0.1369964,0.1368119,0.1366283,0.1364455,0.1362636,0.1360831,0.135904,0.1357257,0.1355482,0.1353718,0.1351961,0.1350212,0.1348466,0.1346728,0.1344994,0.1343263,0.1341535,0.1339809,0.1338086,0.1336366,0.1334647,0.1332933,0.1331223,0.1329515,0.1327809,0.1326105,0.1324403,0.1322701,0.1321004,0.131931,0.1317618,0.1315929,0.1314246,0.1312566,0.1310889,0.1309214,0.1307541,0.1305874,0.1304208,0.1302546,0.1300888,0.1299233,0.1297583,0.1295937,0.1294295,0.1292658,0.1291026,0.1289398,0.128778,0.1286166,0.1284558,0.1282955,0.1281357,0.1279763,0.1278174,0.1276591,0.127501,0.1273428,0.1271851,0.127028,0.1268715,0.1267158,0.1265607,0.126406,0.1262521,0.1260987,0.1259459,0.1257938,0.1256423,0.1254916,0.1253414,0.1251919,0.1250428,0.1248943,0.1247464,0.124599,0.1244525,0.1243069,0.1241624,0.1240187,0.1238761,0.1237345,0.1235941,0.1234547,0.1233173,0.1231812,0.1230463,0.1229126,0.1227803,0.1226492,0.1225195,0.122391,0.1222638,0.1221382,0.122014,0.1218915,0.1217703,0.1216508,0.1215328,0.1214163,0.1213013,0.1211886,0.1210774,0.1209678,0.1208596,0.1207529,0.1206477,0.1205439,0.1204413,0.1203403,0.1202404,0.1201419,0.1200448,0.1199487,0.119854,0.1197595,0.1196661,0.119574,0.1194828,0.1193926,0.1193035,0.1192155,0.1191284,0.1190427,0.1189579,0.1188739,0.1187909,0.118709,0.118628,0.1185476,0.1184686,0.1183907,0.1183137,0.1182375,0.1181623,0.1180878,0.118014,0.1179412,0.1178691,0.1177976,0.1177268,0.1176566,0.1175866,0.1175168,0.1174478,0.1173793,0.1173112,0.1172433,0.1171758,0.1171086,0.1170417,0.1169747,0.1169081,0.1168416,0.1167749,0.1167081,0.116641,0.116574,0.116507,0.1164404,0.1163742,0.1163081,0.1162417,0.1161753,0.1161083,0.1160413,0.1159741,0.1159067,0.1158391,0.1157712,0.1157029,0.1156345,0.1155656,0.1154963,0.1154269,0.1153572,0.1152871,0.1152168,0.1151463,0.1150756,0.1150046,0.1149336,0.1148624,0.1147916,0.1147208,0.1146498,0.1145785,0.1145069,0.114435,0.1143628,0.1142903,0.114218,0.1141459,0.1140739,0.1140018,0.1139297,0.1138576,0.1137855,0.1137135,0.1136415,0.1135696,0.1134978,0.1134262,0.1133549,0.113284,0.1132132,0.1131425,0.113072,0.1130017,0.1129317,0.1128618,0.1127923,0.112723,0.1126539,0.112585,0.112516,0.1124473,0.1123784,0.1123095,0.112241,0.1121726,0.1121043,0.1120359,0.1119675,0.1118992,0.1118308,0.1117625,0.1116941,0.1116258,0.1115573,0.1114885,0.1114194,0.1113504,0.111281,0.1112114,0.1111419,0.111072,0.1110019,0.1109317,0.1108608,0.1107896,0.1107183,0.1106469,0.1105754,0.1105038,0.1104323,0.1103606,0.1102889,0.1102173,0.1101456,0.1100738,0.1100023,0.1099306,0.1098588,0.109787,0.1097152,0.109644,0.1095724,0.1095009,0.1094298,0.1093584,0.1092872,0.1092161,0.1091452,0.1090747,0.1090045,0.1089344,0.1088648,0.1087951,0.1087258,0.108656,0.1085863,0.1085167,0.1084473,0.1083782,0.1083094,0.1082404,0.1081718,0.1081034,0.1080349,0.1079665,0.1078986,0.1078312,0.1077639,0.107697,0.1076305,0.107564,0.1074978,0.1074316,0.1073654,0.1072995,0.1072335,0.1071678,0.1071035,0.1070399,0.1069764,0.1069132,0.1068501,0.1067872,0.1067246,0.1066619,0.1065994,0.106537,0.1064746,0.1064122,0.1063499,0.1062875,0.1062251,0.1061626,0.1061002,0.1060379,0.1059757,0.105914,0.1058521,0.1057903,0.1057288,0.1056674,0.105606,0.1055448,0.1054836,0.1054226,0.1053614,0.1053001,0.105239,0.1051779,0.1051168,0.1050556,0.1049944,0.1049334,0.1048719,0.1048105,0.1047491,0.104688,0.1046271,0.1045665,0.1045061,0.104446,0.1043862,0.1043268,0.1042676,0.1042089,0.1041504,0.1040923,0.1040342,0.1039766,0.1039191,0.103862,0.1038047,0.1037471,0.1036902,0.1036336,0.1035772,0.1035207,0.1034653,0.1034099,0.1033547,0.1032996,0.1032444,0.1031891,0.1031336,0.1030784,0.1030233,0.1029686,0.1029145,0.1028608,0.1028079,0.1027554,0.102703,0.1026509,0.1026005,0.1025521,0.1025049,0.1024587,0.1024134,0.1023692,0.1023255,0.1022822,0.102239,0.1021957,0.1021517,0.1021075,0.1020622,0.1020157,0.1019679,0.1019191,0.1018691,0.1018169,0.1017636,0.1017083,0.1016517,0.1015937,0.1015344,0.101474,0.1014125,0.1013504,0.1012875,0.1012242,0.1011605,0.1010967,0.1010331,0.1009697,0.1009068,0.0989555,0.0989182,0.0988821,0.0988473,0.0988138,0.0987812,0.0987495,0.0987185,0.0986883,0.0986589,0.0986307,0.0986038,0.0985781,0.0985539,0.0985309,0.0985093,0.0984887,0.0984692,0.0984507,0.098433,0.0984162,0.0984,0.0983845,0.0983697,0.0983558,0.098343,0.0983315,0.0983217,0.0983139,0.0983081,0.0983045,0.098303,0.0983034,0.0983054,0.0983088,0.0983134,0.0983191,0.0983257,0.0983332,0.0983417,0.0983513,0.0983622,0.0983745,0.0983884,0.0984041,0.0984216,0.0984412,0.0984628,0.0984865,0.0985125,0.0985409,0.0985718,0.0986055,0.0986422,0.0986821,0.0987255,0.0987724,0.098823,0.0988773,0.0989352,0.0989967,0.0990616,0.0991299,0.0992017,0.0992768,0.0993554,0.0994375,0.0995228,0.0996112,0.0997026,0.0997966,0.0998928,0.0999909,0.1000904,0.1001911,0.1002927,0.1003951,0.1004981,0.1006018,0.1007062,0.1008114,0.1009175,0.1010245,0.1011326,0.1012421,0.1013529,0.1014653,0.1015791,0.1016945,0.1018113,0.1019295,0.1020487,0.1021689,0.1022902,0.1024123,0.1025354,0.1026596,0.1027853,0.102913,0.1030428,0.1031748,0.1033092,0.1034461,0.1035854,0.1037271,0.1038709,0.1040166,0.104164,0.1043127,0.1044628,0.104614,0.1047663,0.1049199,0.1050745,0.1052304,0.1053875,0.105546,0.1057059,0.105867,0.1060292,0.1061925,0.1063563,0.1065204,0.1066844,0.1068479,0.1070105,0.1071719,0.1073316,0.1074894,0.1076451,0.1077984,0.1079495,0.1080983,0.108245,0.1083898,0.1085325,0.1086735,0.1088129,0.1089507,0.109087,0.1092219,0.1093555,0.109488,0.1096196,0.1097505,0.109881,0.1100112,0.1101415,0.110272,0.1104031,0.110535,0.1106677,0.1108014,0.110936,0.1110715,0.1112076,0.1113441,0.1114805,0.1116165,0.1117517,0.1118857,0.1120182,0.1121489,0.1122775,0.1124036,0.112527,0.1126471,0.1127635,0.112876,0.1129842,0.1130878,0.1131866,0.1132803,0.1133686,0.1134513,0.1135283,0.1135993,0.1136642,0.1137232,0.1137762,0.1138234,0.1138649,0.113901,0.1139323,0.1139591,0.1139818,0.1140003,0.1140151,0.1140262,0.1140338,0.114038,0.1140388,0.1140366,0.1140316,0.114024,0.1140138,0.1140012,0.1139862,0.113969,0.1139497,0.1139282,0.1139048,0.1138795,0.1138524,0.1138236,0.113793,0.1137606,0.1137263,0.11369,0.1136515,0.1136106,0.1135674,0.1135215,0.1134728,0.1134211,0.1133661,0.1133075,0.1132451,0.1131788,0.1131084,0.113034,0.1129557,0.1128737,0.112788,0.1126987,0.1126062,0.1125103,0.1124111,0.1123083,0.1122019,0.112092,0.1119785,0.1118613,0.1117406,0.1116163,0.1114888,0.111358,0.1112243,0.1110879,0.1109492,0.1108087,0.1106668,0.1105236,0.1103799,0.1102359,0.1100919,0.1099483,0.1098051,0.1096628,0.1095217,0.109382,0.1092439,0.1091074,0.1089725,0.1088394,0.1087081,0.1085787,0.1084513,0.1083259,0.1082028,0.1080821,0.1079638,0.1078479,0.1077345,0.1076235,0.1075146,0.1074078,0.1073026,0.107199,0.1070966,0.1069955,0.1068954,0.1067968,0.1066996,0.1066041,0.1065102,0.1064182,0.106328,0.1062396,0.1061527,0.1060675,0.1059837,0.1059013,0.1058203,0.1057408,0.1056628,0.105586,0.1055107,0.1054368,0.1053643,0.1052928,0.1052226,0.1051534,0.1050854,0.1050185,0.1049527,0.1048879,0.1048242,0.1047615,0.1046998,0.104639,0.1045791,0.1045201,0.1044621,0.1044053,0.1043499,0.1042959,0.1042435,0.104193,0.1041444,0.1040977,0.104053,0.1040102,0.1039692,0.10393,0.1038923,0.1038561,0.1038214,0.1037885,0.1037573,0.1037277,0.1036998,0.1036737,0.1036493,0.1036263,0.1036046,0.103584,0.1035644,0.1035456,0.1035272,0.1035091,0.1034913,0.1034736,0.1034561,0.1034387,0.1034214,0.1034042,0.1033871,0.1033699,0.1033525,0.1033348,0.1033167,0.1032984,0.1032798,0.1032607,0.1032411,0.1032209,0.1032,0.1031782,0.1031556,0.1031321,0.1031077,0.1030825,0.1030566,0.1030299,0.1030023,0.1029739,0.1029445,0.1029143,0.1028834,0.1028518,0.1028199,0.1027875,0.1027551,0.1027228,0.1026906,0.1026585,0.1026265,0.1025948,0.1025633,0.102532,0.102501,0.1024705,0.1024405,0.102411,0.1023822,0.102354,0.1023264,0.1022994,0.102273,0.1022472,0.1022224,0.1021985,0.1021758,0.1021542,0.1021338,0.1021145,0.1020963,0.1020793,0.1020633,0.1020484,0.1020347,0.1020222,0.1020108,0.1020005,0.1019914,0.1019834,0.1019764,0.1019706,0.1019661,0.101963,0.1019615,0.1019616,0.1019636,0.1019675,0.1019731,0.1019804,0.1019896,0.1020006,0.1020134,0.102028,0.1020443,0.1020624,0.1020822,0.1021038,0.102127,0.1021519,0.1021785,0.1022067,0.1022367,0.1022686,0.1023025,0.1023384,0.1023764,0.1024167,0.1024591,0.1025037,0.1025505,0.1025996,0.1026507,0.102704,0.1027594,0.102817,0.1028767,0.1029386,0.1030028,0.1030691,0.1031376,0.1032083,0.1032811,0.1033564,0.1034342,0.1035148,0.1035983,0.1036848,0.1037744,0.1038672,0.1039631,0.1040623,0.1041647,0.1042704,0.1043796,0.1044922,0.1046082,0.1047273,0.1048495,0.1049745,0.1051023,0.1052327,0.1053659,0.1055019,0.105641,0.1057832,0.1059285,0.1060769,0.1062285,0.1063831,0.1065409,0.1067019,0.1068661,0.1070335,0.1072044,0.107379,0.1075574,0.1077395,0.1079251,0.1081143,0.1083069,0.1085027,0.1087016,0.1089037,0.1091088,0.1093168,0.1095276,0.1097413,0.1099577,0.1101765,0.1103977,0.1106211,0.1108466,0.111074,0.1113033,0.1115343,0.111767,0.1120012,0.1122369,0.1124739,0.112712,0.1129512,0.1131913,0.113432,0.1136734,0.113915,0.1141568,0.1143987,0.1146407,0.1148826,0.1151245,0.1153663,0.115608,0.1158495,0.1160909,0.1163321,0.1165731,0.1168138,0.1170541,0.1172939,0.1175331,0.1177716,0.118009,0.1182452,0.1184802,0.1187137,0.1189459,0.1191767,0.1194061,0.1196343,0.1198612,0.120087,0.1203116,0.120535,0.1207571,0.1209777,0.1211971,0.1214151,0.1216319,0.1218476,0.1220623,0.1222761,0.1224891,0.1227014,0.1229132,0.1231246,0.1233356,0.1235467,0.1237583,0.1239708,0.1241848,0.1244011,0.1246202,0.124843,0.1250703,0.1253027,0.1255411,0.1257861,0.1260385,0.1262989,0.1265677,0.1268455,0.1271326,0.1274293,0.1277359,0.1280525,0.1283792,0.128716,0.129063,0.12942,0.1297869,0.1301637,0.1305502,0.1309462,0.1313519,0.1317671,0.1321919,0.1326263,0.1330705,0.1335245,0.1339884,0.1344623,0.1349461,0.13544,0.1359438,0.1364576,0.1369813,0.1375148,0.1380581,0.1386114,0.1391749,0.1397488,0.1403334,0.1409289,0.1415358,0.1421541,0.1427841,0.1434258,0.1440791,0.1447441,0.1454205,0.1461083,0.1468073,0.1475174,0.1482385,0.1489703,0.1497127,0.1504654,0.1512278,0.1519998,0.1527806,0.1535698,0.1543667,0.1551709,0.1559815,0.1567982,0.1576202,0.1584469,0.1592777,0.1601118,0.1609487,0.1617879,0.1626288,0.1634709,0.1643138,0.1651569,0.1659999,0.1668424,0.1676839,0.168524,0.1693625,0.1701986,0.1710322,0.1718627,0.1726897,0.1735127,0.1743315,0.1751456,0.1759547,0.1767586,0.1775569,0.1783496,0.179136,0.1799161,0.1806891,0.181455,0.1822134,0.1829636,0.1837054,0.1844385,0.1851624,0.1858767,0.1865812,0.1872754,0.1879593,0.1886324,0.1892946,0.1899455,0.1905849,0.1912127,0.1918286,0.1924327,0.1930247,0.1936046,0.1941724,0.194728,0.1952716,0.1958027,0.1963215,0.1968279,0.1973218,0.1978032,0.1982723,0.1987292,0.1991742,0.1996075,0.2000295,0.2004406,0.2008409,0.2012306,0.20161,0.2019793,0.2023389,0.2026888,0.2030294,0.2033608,0.2036831,0.2039963,0.2043005,0.2045957,0.204882,0.2051595,0.2054285,0.2056893,0.2059424,0.206188,0.2064267,0.2066589,0.2068848,0.2071049,0.2073195,0.2075291,0.2077339,0.2079341,0.20813,0.2083218,0.2085096,0.2086938,0.2088746,0.2090521,0.2092265,0.2093979,0.2095666,0.2097323,0.2098953,0.2100554,0.2102124,0.2103663,0.2105169,0.2106641,0.210808,0.2109486,0.2110856,0.2112192,0.2113494,0.211476,0.2115992,0.2117186,0.2118342,0.2119457,0.2120531,0.2121563,0.212255,0.2123493,0.2124391,0.2125243,0.2126052,0.2126815,0.2127534,0.2128209,0.2128839,0.2129424,0.2129964,0.213046,0.2130914,0.2131326,0.2131699,0.2132035,0.2132336,0.2132606,0.2132845,0.2133054,0.2133237,0.2133394,0.2133525,0.2133633,0.213372,0.2133786,0.2133835,0.2133867,0.2133886,0.2133892,0.2133887,0.2133872,0.2133847,0.2133814,0.2133771,0.2133721,0.2133664,0.2133599,0.2133526,0.2133443,0.2133352,0.2133248,0.2133132,0.2133003,0.2132858,0.2132697,0.213252,0.2132325,0.2132111,0.2131876,0.2131621,0.2131343,0.213104,0.2130713,0.2130362,0.2129989,0.2129595,0.212918,0.2128743,0.2128285,0.2127805,0.2127301,0.2126771,0.2126213,0.2125626,0.2125009,0.2124362,0.2123685,0.212298,0.2122245,0.2121483,0.2120693,0.2119876,0.2119033,0.2118164,0.211727,0.2116353,0.2115414,0.2114454,0.2113477,0.2112485,0.2111477,0.2110456,0.2109424,0.210838,0.2107326,0.2106262,0.2105186,0.2104098,0.2102997,0.2101883,0.2100758,0.209962,0.2098469,0.2097305,0.2096129,0.2094943,0.2093748,0.2092545,0.2091338,0.2090127,0.2088913,0.2087699,0.2086485,0.208527,0.2084054,0.2082839,0.2081624,0.208041,0.2079196,0.2077984,0.2076776,0.2075573,0.2074376,0.2073184,0.2071998,0.207082,0.2069648,0.2068484,0.2067326,0.2066176,0.2065033,0.2063898,0.2062772,0.2061658,0.2060557,0.2059472,0.2058406,0.205736,0.2056337,0.2055337,0.2054362,0.2053409,0.2052479,0.2051569,0.2050676,0.2049801,0.2048939,0.204809,0.2047253,0.2046427,0.2045609,0.2044802,0.2044002,0.2043212,0.2042429,0.204165,0.2040875,0.20401,0.2039324,0.2038542,0.2037753,0.2036954,0.2036146,0.2035326,0.2034495,0.2033653,0.2032801,0.2031942,0.2031075,0.2030203,0.2029329,0.2028453,0.2027578,0.2026703,0.2025831,0.2024961,0.2024094,0.2023233,0.2022377,0.202153,0.2020694,0.201987,0.2019062,0.2018271,0.2017497,0.2016743,0.2016011,0.2015302,0.2014617,0.2013959,0.2013329,0.2012728,0.2012158,0.201162,0.2011114,0.2010642,0.20102,0.2009789,0.2009407,0.2009052,0.2008724,0.2008422,0.2008145,0.2007894,0.200767,0.200747,0.2007294,0.2007138,0.2006997,0.2006869,0.2006746,0.2006625,0.2006502,0.2006374,0.2006241,0.2006105,0.2005966,0.2005827,0.2005687,0.2005547,0.2005405,0.2005261,0.2005112,0.2004952,0.2004778,0.2004587,0.2004378,0.2004148,0.2003897,0.2003623,0.2003325,0.2003001,0.2002653,0.2002279,0.2001878,0.2001449,0.2000994,0.200051,0.2,0.1999464,0.1998902,0.1998312,0.1997695,0.1997049,0.1996376,0.1995674,0.1994942,0.1994182,0.1993393,0.1992573,0.1991722,0.1990838,0.1989919,0.1988965,0.1987975,0.1986952,0.1985897,0.1984815,0.1983706,0.1982574,0.1981418,0.198024,0.1979039,0.1977817,0.1976575,0.1975316,0.1974038,0.1972743,0.1971434,0.1970112,0.1968775,0.1967426,0.1966064,0.1964688,0.19633,0.19619,0.1960486,0.1959064,0.1957633,0.1956198,0.1954762,0.1953326,0.1951892,0.1950463,0.1949039,0.1947622,0.1946211,0.194481,0.1943418,0.1942037,0.1940668,0.1939313,0.1937973,0.1936651,0.1935347,0.193406,0.1932789,0.1931533,0.193029,0.1929058,0.1927836,0.1926621,0.1925413,0.1924206,0.1923002,0.1921799,0.1920596,0.1919392,0.1918188,0.1916983,0.1915776,0.1914567,0.1913352,0.1912134,0.191091,0.190968,0.1908441,0.1907193,0.1905935,0.1904672,0.1903405,0.1902137,0.190087,0.1899605,0.1898343,0.1897088,0.1895841,0.1894605,0.1893381,0.189217,0.1890975,0.1889796,0.1888633,0.1887488,0.1886356,0.1885236,0.1884124,0.1883021,0.1881927,0.1880842,0.1879767,0.1878704,0.1877657,0.1876627,0.1875613,0.1874614,0.1873632,0.1872668,0.1871721,0.1870794,0.1869886,0.1869,0.1868139,0.1867302,0.1866493,0.1865715,0.1864969,0.1864259,0.1863583,0.1862941,0.1862333,0.1861759,0.1861219,0.1860711,0.1860234,0.185979,0.185938,0.1859003,0.185866,0.1858352,0.1858077,0.1857839,0.1857637,0.1857474,0.1857351,0.185727,0.1857232,0.185724,0.1857294,0.1857395,0.1857546,0.1857748,0.1858003,0.1858311,0.1858677,0.1859101,0.1859588,0.1860139,0.1860756,0.1861438,0.1862189,0.1863006,0.1863889,0.1864839,0.1865852,0.1866927,0.1868062,0.1869256,0.1870506,0.1871812,0.1873174,0.1874592,0.1876067,0.1877599,0.1879189,0.1880836,0.1882541,0.1884303,0.1886121,0.1887997,0.188993,0.1891921,0.189397,0.1896077,0.1898241,0.1900464,0.1902744,0.1905082,0.1907475,0.1909924,0.1912426,0.1914982,0.1917588,0.1920243,0.1922944,0.192569,0.1928481,0.1931314,0.1934188,0.1937105,0.1940063,0.1943062,0.1946102,0.1949184,0.1952307,0.1955472,0.195868,0.1961932,0.1965229,0.1968571,0.1971957,0.1975386,0.1978855,0.1982362,0.1985901,0.1989467,0.1993055,0.1996659,0.2000274,0.2003893,0.2007509,0.2011115,0.2014701,0.2018259,0.2021781,0.2025259,0.2028686,0.2032056,0.2035365,0.203861,0.2041788,0.2044901,0.2047949,0.2050936,0.2053865,0.2056742,0.2059569,0.2062352,0.2065094,0.2067799,0.2070468,0.2073103,0.2075706,0.2078274,0.2080808,0.2083304,0.2085761,0.2088179,0.2090557,0.2092895,0.2095194,0.2097454,0.2099677,0.2101864,0.2104016,0.2106132,0.2108214,0.2110263,0.2112278,0.2114262,0.2116216,0.2118142,0.2120044,0.2121925,0.212379,0.2125644,0.212749,0.2129331,0.2131168,0.2133004,0.2134836,0.2136666,0.2138494,0.2140318,0.214214,0.2143961,0.2145783,0.2147606,0.2149431,0.2151256,0.2153079,0.2154897,0.2156709,0.2158511,0.2160302,0.2162081,0.2163849,0.2165606,0.2167352,0.2169086,0.2170807,0.2172514,0.2174202,0.2175866,0.2177501,0.2179099,0.2180651,0.2182145,0.2183571,0.2184917,0.2186169,0.2187315,0.2188339,0.2189229,0.2189973,0.2190558,0.2190977,0.2191221,0.2191287,0.2191176,0.2190889,0.2190433,0.2189815,0.2189047,0.2188143,0.2187114,0.2185978,0.2184752,0.2183456,0.2182108,0.2180729,0.2179338,0.2177952,0.2176586,0.2175254,0.2173968,0.2172735,0.2171563,0.2170454,0.216941,0.2168433,0.216752,0.2166669,0.2165879,0.2165148,0.2164474,0.2163852,0.2163278,0.2162746,0.2162252,0.2161789,0.2161354,0.2160944,0.2160558,0.2160193,0.215985,0.2159528,0.2159228,0.2158948,0.2158687,0.2158445,0.2158218,0.2158006,0.2157811,0.2157632,0.215747,0.2157324,0.2157193,0.2157077,0.2156972,0.2156874,0.2156779,0.2156681,0.2156575,0.2156456,0.2156316,0.2156149,0.2155947,0.2155707,0.2155421,0.2155085,0.2154692,0.2154238,0.2153715,0.215312,0.215245,0.2151702,0.2150876,0.2149973,0.2148996,0.2147947,0.2146831,0.2145651,0.2144413,0.2143126,0.2141796,0.2140431,0.213904,0.213763,0.2136209,0.2134782,0.2133356,0.2131937,0.2130527,0.2129132,0.2127756,0.21264,0.2125065,0.2123752,0.212246,0.2121188,0.2119938,0.2118708,0.21175,0.2116316,0.2115159,0.2114028,0.2112923,0.2111842,0.2110784,0.2109745,0.2108722,0.2107715,0.2106721,0.2105741,0.2104774,0.2103821,0.2102882,0.2101957,0.2101045,0.2100146,0.2099258,0.2098379,0.2097509,0.2096644,0.2095785,0.2094932,0.2094086,0.2093249,0.2092421,0.2091602,0.2090795,0.2089997,0.2089209,0.2088428,0.2087651,0.2086876,0.2086101,0.2085324,0.2084544,0.2083759,0.208297,0.2082175,0.2081373,0.2080564,0.2079748,0.2078922,0.207809,0.2077251,0.2076409,0.2075565,0.2074721,0.2073877,0.2073034,0.2072194,0.2071355,0.2070519,0.2069686,0.2068859,0.2068037,0.2067222,0.2066416,0.2065618,0.2064829,0.206405,0.2063281,0.2062522,0.2061772,0.2061031,0.2060296,0.2059565,0.2058835,0.2058103,0.2057367,0.2056625,0.2055878,0.2055126,0.205437,0.2053612,0.205285,0.2052086,0.2051318,0.2050545,0.2049765,0.2048974,0.2048171,0.2047353,0.2046519,0.2045667,0.2044798,0.2043912,0.2043012,0.2042098,0.2041174,0.204024,0.2039298,0.2038345,0.203738,0.2036402,0.2035406,0.2034393,0.2033359,0.2032305,0.203123,0.2030136,0.2029022,0.2027888,0.2026735,0.2025564,0.2024377,0.2023175,0.2021962,0.2020741,0.2019517,0.2018294,0.2017075,0.2015863,0.201466,0.2013468,0.2012287,0.2011119,0.2009964,0.2008822,0.2007694,0.2006582,0.2005486,0.2004407,0.2003347,0.200231,0.2001296,0.2000309,0.1999351,0.1998423,0.1997527,0.1996664,0.1995837,0.1995048,0.19943,0.1993597,0.1992945,0.1992345,0.1991803,0.1991318,0.1990891,0.1990523,0.1990211,0.1989955,0.1989754,0.1989608,0.198952,0.198949,0.1989523,0.198962,0.1989784,0.1990017,0.199032,0.1990694,0.1991138,0.1991653,0.1992238,0.1992894,0.1993623,0.1994426,0.1995307,0.1996269,0.1997315,0.1998448,0.1999669,0.200098,0.2002379,0.2003867,0.2005444,0.200711,0.2008868,0.2010723,0.2012679,0.2014742,0.2016921,0.2019225,0.2021662,0.2024245,0.2026985,0.2029896,0.2032987,0.2036272,0.2039759,0.2043455,0.2047367,0.2051499,0.2055854,0.2060433,0.2065238,0.2070271,0.2075531,0.208102,0.2086737,0.2092683,0.2098859,0.2105267,0.211191,0.2118793,0.2125923,0.2133309,0.2140961,0.214889,0.2157111,0.2165635,0.2174477,0.2183649,0.2193166,0.2203038,0.2213279,0.2223899,0.2234912,0.2246329,0.2258162,0.2270422,0.228312,0.2296264,0.230986,0.2323914,0.2338426,0.2353396,0.2368821,0.2384695,0.2401008,0.2417748,0.24349,0.2452443,0.2470359,0.2488623,0.2507214,0.2526109,0.2545286,0.2564727,0.2584415,0.2604337,0.2624483,0.2644845,0.2665416,0.2686191,0.2707162,0.2728318,0.2749648,0.2771135,0.2792761,0.2814504,0.2836338,0.2858238,0.2880172,0.2902108,0.2924013,0.2945852,0.2967589,0.2989191,0.3010625,0.303186,0.3052869,0.3073627,0.3094113,0.3114311,0.3134208,0.3153792,0.3173058,0.3192003,0.3210626,0.3228931,0.324692,0.3264597,0.3281965,0.3299022,0.3315769,0.3332202,0.3348321,0.3364122,0.3379604,0.3394767,0.3409612,0.3424137,0.3438345,0.3452232,0.3465798,0.3479039,0.3491953,0.3504537,0.3516786,0.35287,0.3540277,0.3551514,0.3562411,0.3572967,0.3583181,0.3593051,0.3602577,0.361176,0.36206,0.3629102,0.3637269,0.3645104,0.3652614,0.3659801,0.366667,0.3673223,0.3679462,0.368539,0.3691009,0.369632,0.3701326,0.370603,0.3710433,0.3714539,0.3718349,0.3721867,0.3725098,0.3728046,0.3730718,0.3733118,0.3735253,0.3737128,0.3738747,0.3740116,0.3741239,0.3742119,0.3742763,0.3743174,0.3743357,0.3743317,0.3743058,0.3742586,0.3741906,0.3741023,0.3739941,0.3738666,0.3737201,0.3735549,0.3733715,0.3731703,0.372952,0.3727175,0.3724675,0.3722027,0.3719239,0.3716319,0.3713272,0.3710103,0.3706821,0.370343,0.3699938,0.3696352,0.3692676,0.3688915,0.3685074,0.3681154,0.3677158,0.3673087,0.3668941,0.3664721,0.3660429,0.3656068,0.3651643,0.3647158,0.3642618,0.3638031,0.3633402,0.3628733,0.3624029,0.3619291,0.3614522,0.3609723,0.3604896,0.3600041,0.359516,0.3590254,0.3585322,0.3580364,0.357538,0.357037,0.3565333,0.3560272,0.3555188,0.3550082,0.3544958,0.3539819,0.3534669,0.3529512,0.3524354,0.3519195,0.3514042,0.3508895,0.3503757,0.3498626,0.3493502,0.3488383,0.348327,0.3478161,0.3473059,0.3467966,0.3462885,0.3457817,0.3452764,0.3447726,0.3442701,0.343769,0.3432693,0.3427711,0.3422747,0.3417804,0.3412883,0.3407987,0.3403118,0.3398276,0.3393463,0.3388681,0.3383932,0.3379217,0.3374541,0.3369905,0.3365313,0.3360766,0.3356263,0.3351802,0.3347381,0.3342998,0.333865,0.3334337,0.3330061,0.3325827,0.3321637,0.3317496,0.3313406,0.3309366,0.3305376,0.3301434,0.3297541,0.3293695,0.32899,0.3286154,0.3282459,0.3278814,0.3275216,0.3271663,0.3268155,0.3264691,0.3261273,0.32579,0.3254577,0.3251302,0.3248077,0.3244902,0.3241777,0.3238702,0.3235678,0.3232705,0.3229786,0.3226923,0.3224118,0.3221376,0.3218697,0.3216084,0.3213537,0.3211059,0.3208651,0.3206313,0.3204046,0.3201852,0.3199731,0.3197683,0.3195713,0.3193821,0.3192014,0.3190294,0.3188668,0.3187138,0.3185707,0.3184375,0.3183143,0.3182008,0.3180968,0.3180023,0.3179174,0.3178421,0.3177769,0.3177219,0.3176776,0.3176438,0.3176209,0.3176087,0.3176075,0.3176172,0.3176383,0.3176709,0.3177153,0.3177718,0.3178404,0.3179212,0.3180141,0.3181194,0.3182369,0.3183667,0.3185087,0.3186629,0.3188292,0.3190076,0.3191982,0.319401,0.3196161,0.3198435,0.3200834,0.3203356,0.3206,0.3208765,0.3211651,0.3214657,0.3217787,0.3221043,0.3224426,0.3227939,0.3231581,0.3235347,0.3239234,0.3243236,0.3247348,0.325157,0.32559,0.3260342,0.32649,0.3269575,0.3274364,0.3279265,0.3284272,0.3289378,0.3294575,0.3299856,0.3305213,0.331064,0.3316128,0.3321667,0.3327249,0.3332863,0.3338499,0.3344147,0.3349801,0.3355452,0.3361091,0.3366711,0.3372303,0.3377855,0.3383355,0.3388789,0.3394142,0.33994,0.3404548,0.3409575,0.3414468,0.341922,0.3423822,0.3428269,0.3432554,0.3436671,0.3440611,0.344437,0.3447939,0.3451315,0.3454493,0.3457471,0.346025,0.3462832,0.3465222,0.3467424,0.3469448,0.3471304,0.3473001,0.3474545,0.3475944,0.3477203,0.3478327,0.3479325,0.3480201,0.3480967,0.3481629,0.3482195,0.3482672,0.3483067,0.3483388,0.3483646,0.3483848,0.3484005,0.3484126,0.348422,0.3484292,0.3484348,0.348439,0.3484421,0.3484447,0.348447,0.3484496,0.3484533,0.3484585,0.3484656,0.3484748,0.3484861,0.3484993,0.3485141,0.3485304,0.3485479,0.3485669,0.3485876,0.3486103,0.3486354,0.3486631,0.3486935,0.3487266,0.3487625,0.3488012,0.3488427,0.3488868,0.3489332,0.3489822,0.3490333,0.3490864,0.3491415,0.3491987,0.3492582,0.3493204,0.3493861,0.3494558,0.3495297,0.3496082,0.349691,0.3497783,0.3498694,0.3499639,0.3500615,0.3501619,0.3502645,0.3503692,0.3504753,0.3505824,0.3506903,0.3507991,0.350909,0.3510202,0.3511333,0.3512485,0.3513655,0.351484,0.3516033,0.3517226,0.3518414,0.3519591,0.3520758,0.3521913,0.3523056,0.3524188,0.3525308,0.3526418,0.3527519,0.3528614,0.3529708,0.35308,0.3531888,0.3532967,0.353403,0.3535072,0.3536087,0.3537073,0.3538033,0.3538973,0.3539893,0.3540798,0.354169,0.3542567,0.3543425,0.3544258,0.3545063,0.3545839,0.3546586,0.3547307,0.3548003,0.3548677,0.3549333,0.3549969,0.3550588,0.3551192,0.3551784,0.3552365,0.3552937,0.3553498,0.3554046,0.355458,0.3555096,0.3555593,0.355607,0.3556531,0.3556981,0.3557426,0.3557873,0.3558324,0.3558783,0.3559248,0.3559722,0.3560201,0.3560687,0.356118,0.3561682,0.3562196,0.3562727,0.3563275,0.3563844,0.3564435,0.3565049,0.3565687,0.3566349,0.3567038,0.3567756,0.3568506,0.3569289,0.3570104,0.3570949,0.357182,0.357271,0.3573613,0.357452,0.3575426,0.3576322,0.3577201,0.3578058,0.3578885,0.3579674,0.3580418,0.3581109,0.358174,0.3582309,0.3582811,0.3583252,0.3583632,0.3583961,0.3584246,0.3584495,0.3584709,0.3584888,0.3585029,0.3585131,0.3585192,0.3585215,0.3585203,0.3585162,0.35851,0.3585022,0.3584937,0.358485,0.3584762,0.3584673,0.3584583,0.3584491,0.358439,0.3584276,0.3584148,0.3584003,0.3583841,0.3583665,0.3583478,0.358328,0.358307,0.3582847,0.3582605,0.358234,0.3582051,0.3581738,0.3581403,0.3581054,0.3580691,0.3580315,0.3579921,0.3579502,0.3579044,0.3578542,0.3577983,0.3577364,0.3576681,0.3575932,0.3575119,0.3574241,0.3573297,0.3572282,0.357119,0.3570015,0.3568759,0.3567421,0.3566007,0.3564525,0.3562984,0.3561394,0.3559761,0.3558087,0.3556374,0.3554622,0.3552831,0.3551002,0.354913,0.3547217,0.3545265,0.3543275,0.3541256,0.3539214,0.353716,0.3535097,0.3533028,0.3530948,0.3528852,0.3526733,0.3524585,0.3522404,0.3520193,0.3517957,0.3515703,0.3513438,0.3511164,0.3508882,0.3506588,0.3504282,0.3501958,0.3499615,0.3497255,0.3494881,0.3492498,0.3490111,0.3487722,0.3485335,0.3482957,0.3480594,0.3478253,0.3475938,0.3473653,0.3471401,0.3469178,0.3466983,0.3464812,0.3462663,0.3460537,0.3458437,0.3456366,0.3454326,0.345232,0.3450347,0.3448405,0.3446493,0.3444608,0.3442745,0.3440898,0.343906,0.3437225,0.3435386,0.343354,0.3431681,0.3429811,0.3427933,0.3426051,0.3424168,0.3422288,0.3420408,0.3418526,0.3416635,0.341473,0.3412806,0.3410863,0.3408899,0.3406913,0.340491,0.3402889,0.3400851,0.3398798,0.3396733,0.3394653,0.339256,0.339046,0.3388356,0.3386249,0.3384144,0.338205,0.3379977,0.3377933,0.3375927,0.3373964,0.337205,0.3370187,0.3368379,0.3366629,0.3364943,0.3363327,0.3361793,0.3360345,0.3358988,0.3357728,0.3356573,0.3355528,0.3354599,0.3353793,0.3353117,0.3352572,0.3352159,0.3351882,0.3351744,0.3351754,0.3351923,0.3352262,0.3352782,0.3353492,0.3354399,0.3355507,0.335682,0.3358338,0.3360059,0.3361981,0.3364105,0.3366426,0.3368942,0.3371654,0.337456,0.3377666,0.3380973,0.3384485,0.3388208,0.3392139,0.339628,0.3400627,0.3405173,0.3409907,0.3414822,0.3419911,0.3425173,0.3430606,0.3436209,0.3441989,0.344795,0.3454092,0.3460413,0.3466908,0.3473567,0.348038,0.3487334,0.3494419,0.3501629,0.3508955,0.3516392,0.3523932,0.353157,0.3539298,0.3547116,0.3555021,0.3563011,0.3571084,0.357924,0.3587471,0.3595769,0.3604124,0.3612525,0.3620962,0.3629422,0.3637898,0.3646384,0.3654877,0.3663374,0.3671873,0.368037,0.3688862,0.3697346,0.370582,0.3714274,0.3722701,0.373109,0.3739426,0.374769,0.3755863,0.376393,0.3771878,0.3779698,0.3787384,0.3794935,0.3802348,0.380962,0.3816743,0.3823714,0.3830531,0.3837196,0.384371,0.3850071,0.3856275,0.3862311,0.3868167,0.3873833,0.3879309,0.38846,0.3889715,0.3894664,0.3899453,0.3904085,0.3908564,0.3912887,0.3917047,0.3921046,0.392489,0.3928592,0.3932176,0.3935671,0.3939097,0.3942474,0.3945813,0.3949121,0.3952399,0.3955649,0.3958869,0.3962062,0.3965228,0.3968369,0.3971493,0.3974609,0.3977727,0.3980857,0.3984008,0.3987188,0.3990399,0.3993644,0.3996921,0.400023,0.4003577,0.4006964,0.4010389,0.4013849,0.4017338,0.402085,0.4024381,0.4027932,0.4031511,0.4035129,0.4038799,0.4042533,0.404634,0.4050228,0.4054198,0.4058253,0.4062395,0.4066626,0.4070943,0.4075339,0.4079792,0.4084275,0.4088754,0.4093191,0.4097561,0.4101841,0.4106028,0.4110121,0.4114126,0.4118055,0.4121914,0.4125705,0.4129429,0.4133079,0.4136651,0.414014,0.4143542,0.4146848,0.4150044,0.4153115,0.4156035,0.4158778,0.4161312,0.4163608,0.4165639,0.4167374,0.4168786,0.4169844,0.4170516,0.4170766,0.4170569,0.4169903,0.4168763,0.4167154,0.4165093,0.4162604,0.4159719,0.4156477,0.4152923,0.414911,0.4145104,0.4140976,0.4136801,0.4132652,0.4128596,0.412468,0.4120941,0.41174,0.4114068,0.4110951,0.4108061,0.4105408,0.4103005,0.4100869,0.409901,0.4097433,0.4096138,0.4095111,0.4094331,0.4093771,0.4093403,0.4093196,0.409313,0.4093189,0.4093364,0.4093651,0.4094049,0.4094554,0.4095165,0.4095873,0.4096671,0.4097548,0.4098493,0.4099499,0.4100569,0.4101704,0.410291,0.4104193,0.4105554,0.4107,0.4108536,0.4110168,0.4111895,0.4113718,0.4115629,0.4117616,0.4119662,0.4121745,0.4123853,0.4125974,0.4128095,0.4130217,0.4132338,0.4134456,0.4136561,0.4138641,0.4140684,0.4142675,0.4144604,0.4146454,0.4148207,0.4149845,0.4151348,0.4152691,0.4153844,0.4154778,0.4155461,0.4155871,0.4155994,0.4155838,0.4155412,0.4154735,0.4153822,0.4152687,0.4151329,0.4149762,0.4147993,0.4146042,0.4143946,0.414175,0.4139497,0.4137226,0.4134972,0.4132758,0.4130601,0.4128508,0.4126487,0.4124547,0.4122691,0.412093,0.4119269,0.4117711,0.4116259,0.4114908,0.4113655,0.4112481,0.4111373,0.4110316,0.4109295,0.4108291,0.4107294,0.4106301,0.4105305,0.4104298,0.4103267,0.41022,0.4101088,0.4099936,0.4098754,0.4097551,0.4096344,0.4095154,0.4093996,0.4092875,0.4091794,0.4090752,0.4089744,0.4088772,0.4087842,0.4086962,0.4086139,0.4085377,0.4084673,0.4084032,0.4083452,0.4082935,0.4082488,0.4082115,0.4081823,0.4081617,0.40815,0.4081466,0.4081514,0.4081639,0.4081835,0.4082092,0.4082398,0.4082735,0.4083095,0.4083472,0.4083863,0.4084268,0.4084689,0.4085125,0.4085571,0.4086031,0.4086508,0.4087009,0.4087546,0.4088124,0.4088745,0.4089409,0.409011,0.409084,0.4091593,0.4092361,0.4093143,0.4093943,0.4094762,0.4095603,0.4096473,0.4097378,0.4098328,0.4099326,0.4100374,0.4101468,0.4102611,0.4103811,0.4105079,0.410643,0.4107876,0.4109424,0.4111075,0.4112822,0.4114662,0.4116591,0.4118608,0.4120716,0.4122913,0.4125199,0.4127568,0.4130016,0.4132537,0.4135121,0.4137766,0.4140474,0.4143252,0.4146108,0.4149057,0.415211,0.415528,0.4158574,0.4161984,0.4165503,0.416911,0.4172784,0.4176508,0.4180273,0.4184074,0.4187913,0.4191804,0.4195751,0.4199766,0.4203846,0.4207985,0.4212169,0.421639,0.4220634,0.4224908,0.4229213,0.4233552,0.4237931,0.4242353,0.4246818,0.425134,0.4255921,0.4260557,0.4265248,0.4269997,0.4274811,0.4279703,0.4284673,0.4289728,0.4294862,0.4300059,0.4305297,0.4310563,0.4315845,0.4321147,0.4326483,0.4331874,0.4337338,0.4342891,0.4348533,0.4354261,0.436007,0.4365959,0.4371937,0.4378021,0.4384215,0.4390523,0.4396938,0.4403444,0.4410025,0.4416664,0.4423351,0.443007,0.443682,0.4443601,0.4450414,0.4457262,0.446414,0.4471036,0.4477938,0.4484841,0.4491746,0.4498662,0.45056,0.4512569,0.4519573,0.452661,0.4533672,0.4540758,0.4547863,0.4554988,0.456214,0.4569311,0.4576513,0.4583752,0.4591042,0.4598387,0.4605782,0.4613219,0.4620677,0.4628134,0.4635567,0.4642958,0.4650296,0.4657574,0.4664789,0.4671943,0.4679036,0.4686076,0.4693064,0.4699994,0.4706855,0.4713637,0.4720329,0.4726927,0.4733439,0.4739867,0.4746224,0.4752517,0.475875,0.4764911,0.4770984,0.4776942,0.4782752,0.4788387,0.479382,0.4799045,0.480406,0.4808883,0.4813536,0.4818058,0.4822485,0.482685,0.4831172,0.4835463,0.4839721,0.484393,0.4848069,0.4852121,0.485607,0.4859917,0.486367,0.4867354,0.4870981,0.487457,0.4878125,0.4881625,0.4885041,0.4888337,0.4891489,0.4894482,0.4897323,0.4900032,0.4902639,0.490517,0.4907649,0.4910088,0.4912483,0.4914824,0.4917087,0.4919243,0.4921268,0.492315,0.4924891,0.4926503,0.4927996,0.4929377,0.4930651,0.4931817,0.4932866,0.4933792,0.4934599,0.4935289,0.4935874,0.4936369,0.4936786,0.4937143,0.4937452,0.4937718,0.4937944,0.4938129,0.4938266,0.4938354,0.4938388,0.4938362,0.4938266,0.4938093,0.4937829,0.4937456,0.4936962,0.4936282
