id_lab,id,tax_name,functional_group,dm_percentage,ash_dm,om_percentage,pc_percentage_dm,adf_percentage_dm,ndf_percentage_dm,net_gas_8h_ml,net_gas_24h_ml,gas_ml_g_dm_incubated_24h,tddm,part_fact,ch4_percentage_in_gas_8h,ch4_percentage_in_gas_24h,ch4_ml_g_dm_incubated_24h,methane_intensity,ch4_ml_g_ndf_digested_24h,400,400.5,401,401.5,402,402.5,403,403.5,404,404.5,405,405.5,406,406.5,407,407.5,408,408.5,409,409.5,410,410.5,411,411.5,412,412.5,413,413.5,414,414.5,415,415.5,416,416.5,417,417.5,418,418.5,419,419.5,420,420.5,421,421.5,422,422.5,423,423.5,424,424.5,425,425.5,426,426.5,427,427.5,428,428.5,429,429.5,430,430.5,431,431.5,432,432.5,433,433.5,434,434.5,435,435.5,436,436.5,437,437.5,438,438.5,439,439.5,440,440.5,441,441.5,442,442.5,443,443.5,444,444.5,445,445.5,446,446.5,447,447.5,448,448.5,449,449.5,450,450.5,451,451.5,452,452.5,453,453.5,454,454.5,455,455.5,456,456.5,457,457.5,458,458.5,459,459.5,460,460.5,461,461.5,462,462.5,463,463.5,464,464.5,465,465.5,466,466.5,467,467.5,468,468.5,469,469.5,470,470.5,471,471.5,472,472.5,473,473.5,474,474.5,475,475.5,476,476.5,477,477.5,478,478.5,479,479.5,480,480.5,481,481.5,482,482.5,483,483.5,484,484.5,485,485.5,486,486.5,487,487.5,488,488.5,489,489.5,490,490.5,491,491.5,492,492.5,493,493.5,494,494.5,495,495.5,496,496.5,497,497.5,498,498.5,499,499.5,500,500.5,501,501.5,502,502.5,503,503.5,504,504.5,505,505.5,506,506.5,507,507.5,508,508.5,509,509.5,510,510.5,511,511.5,512,512.5,513,513.5,514,514.5,515,515.5,516,516.5,517,517.5,518,518.5,519,519.5,520,520.5,521,521.5,522,522.5,523,523.5,524,524.5,525,525.5,526,526.5,527,527.5,528,528.5,529,529.5,530,530.5,531,531.5,532,532.5,533,533.5,534,534.5,535,535.5,536,536.5,537,537.5,538,538.5,539,539.5,540,540.5,541,541.5,542,542.5,543,543.5,544,544.5,545,545.5,546,546.5,547,547.5,548,548.5,549,549.5,550,550.5,551,551.5,552,552.5,553,553.5,554,554.5,555,555.5,556,556.5,557,557.5,558,558.5,559,559.5,560,560.5,561,561.5,562,562.5,563,563.5,564,564.5,565,565.5,566,566.5,567,567.5,568,568.5,569,569.5,570,570.5,571,571.5,572,572.5,573,573.5,574,574.5,575,575.5,576,576.5,577,577.5,578,578.5,579,579.5,580,580.5,581,581.5,582,582.5,583,583.5,584,584.5,585,585.5,586,586.5,587,587.5,588,588.5,589,589.5,590,590.5,591,591.5,592,592.5,593,593.5,594,594.5,595,595.5,596,596.5,597,597.5,598,598.5,599,599.5,600,600.5,601,601.5,602,602.5,603,603.5,604,604.5,605,605.5,606,606.5,607,607.5,608,608.5,609,609.5,610,610.5,611,611.5,612,612.5,613,613.5,614,614.5,615,615.5,616,616.5,617,617.5,618,618.5,619,619.5,620,620.5,621,621.5,622,622.5,623,623.5,624,624.5,625,625.5,626,626.5,627,627.5,628,628.5,629,629.5,630,630.5,631,631.5,632,632.5,633,633.5,634,634.5,635,635.5,636,636.5,637,637.5,638,638.5,639,639.5,640,640.5,641,641.5,642,642.5,643,643.5,644,644.5,645,645.5,646,646.5,647,647.5,648,648.5,649,649.5,650,650.5,651,651.5,652,652.5,653,653.5,654,654.5,655,655.5,656,656.5,657,657.5,658,658.5,659,659.5,660,660.5,661,661.5,662,662.5,663,663.5,664,664.5,665,665.5,666,666.5,667,667.5,668,668.5,669,669.5,670,670.5,671,671.5,672,672.5,673,673.5,674,674.5,675,675.5,676,676.5,677,677.5,678,678.5,679,679.5,680,680.5,681,681.5,682,682.5,683,683.5,684,684.5,685,685.5,686,686.5,687,687.5,688,688.5,689,689.5,690,690.5,691,691.5,692,692.5,693,693.5,694,694.5,695,695.5,696,696.5,697,697.5,698,698.5,699,699.5,700,700.5,701,701.5,702,702.5,703,703.5,704,704.5,705,705.5,706,706.5,707,707.5,708,708.5,709,709.5,710,710.5,711,711.5,712,712.5,713,713.5,714,714.5,715,715.5,716,716.5,717,717.5,718,718.5,719,719.5,720,720.5,721,721.5,722,722.5,723,723.5,724,724.5,725,725.5,726,726.5,727,727.5,728,728.5,729,729.5,730,730.5,731,731.5,732,732.5,733,733.5,734,734.5,735,735.5,736,736.5,737,737.5,738,738.5,739,739.5,740,740.5,741,741.5,742,742.5,743,743.5,744,744.5,745,745.5,746,746.5,747,747.5,748,748.5,749,749.5,750,750.5,751,751.5,752,752.5,753,753.5,754,754.5,755,755.5,756,756.5,757,757.5,758,758.5,759,759.5,760,760.5,761,761.5,762,762.5,763,763.5,764,764.5,765,765.5,766,766.5,767,767.5,768,768.5,769,769.5,770,770.5,771,771.5,772,772.5,773,773.5,774,774.5,775,775.5,776,776.5,777,777.5,778,778.5,779,779.5,780,780.5,781,781.5,782,782.5,783,783.5,784,784.5,785,785.5,786,786.5,787,787.5,788,788.5,789,789.5,790,790.5,791,791.5,792,792.5,793,793.5,794,794.5,795,795.5,796,796.5,797,797.5,798,798.5,799,799.5,800,800.5,801,801.5,802,802.5,803,803.5,804,804.5,805,805.5,806,806.5,807,807.5,808,808.5,809,809.5,810,810.5,811,811.5,812,812.5,813,813.5,814,814.5,815,815.5,816,816.5,817,817.5,818,818.5,819,819.5,820,820.5,821,821.5,822,822.5,823,823.5,824,824.5,825,825.5,826,826.5,827,827.5,828,828.5,829,829.5,830,830.5,831,831.5,832,832.5,833,833.5,834,834.5,835,835.5,836,836.5,837,837.5,838,838.5,839,839.5,840,840.5,841,841.5,842,842.5,843,843.5,844,844.5,845,845.5,846,846.5,847,847.5,848,848.5,849,849.5,850,850.5,851,851.5,852,852.5,853,853.5,854,854.5,855,855.5,856,856.5,857,857.5,858,858.5,859,859.5,860,860.5,861,861.5,862,862.5,863,863.5,864,864.5,865,865.5,866,866.5,867,867.5,868,868.5,869,869.5,870,870.5,871,871.5,872,872.5,873,873.5,874,874.5,875,875.5,876,876.5,877,877.5,878,878.5,879,879.5,880,880.5,881,881.5,882,882.5,883,883.5,884,884.5,885,885.5,886,886.5,887,887.5,888,888.5,889,889.5,890,890.5,891,891.5,892,892.5,893,893.5,894,894.5,895,895.5,896,896.5,897,897.5,898,898.5,899,899.5,900,900.5,901,901.5,902,902.5,903,903.5,904,904.5,905,905.5,906,906.5,907,907.5,908,908.5,909,909.5,910,910.5,911,911.5,912,912.5,913,913.5,914,914.5,915,915.5,916,916.5,917,917.5,918,918.5,919,919.5,920,920.5,921,921.5,922,922.5,923,923.5,924,924.5,925,925.5,926,926.5,927,927.5,928,928.5,929,929.5,930,930.5,931,931.5,932,932.5,933,933.5,934,934.5,935,935.5,936,936.5,937,937.5,938,938.5,939,939.5,940,940.5,941,941.5,942,942.5,943,943.5,944,944.5,945,945.5,946,946.5,947,947.5,948,948.5,949,949.5,950,950.5,951,951.5,952,952.5,953,953.5,954,954.5,955,955.5,956,956.5,957,957.5,958,958.5,959,959.5,960,960.5,961,961.5,962,962.5,963,963.5,964,964.5,965,965.5,966,966.5,967,967.5,968,968.5,969,969.5,970,970.5,971,971.5,972,972.5,973,973.5,974,974.5,975,975.5,976,976.5,977,977.5,978,978.5,979,979.5,980,980.5,981,981.5,982,982.5,983,983.5,984,984.5,985,985.5,986,986.5,987,987.5,988,988.5,989,989.5,990,990.5,991,991.5,992,992.5,993,993.5,994,994.5,995,995.5,996,996.5,997,997.5,998,998.5,999,999.5,1000,1000.5,1001,1001.5,1002,1002.5,1003,1003.5,1004,1004.5,1005,1005.5,1006,1006.5,1007,1007.5,1008,1008.5,1009,1009.5,1010,1010.5,1011,1011.5,1012,1012.5,1013,1013.5,1014,1014.5,1015,1015.5,1016,1016.5,1017,1017.5,1018,1018.5,1019,1019.5,1020,1020.5,1021,1021.5,1022,1022.5,1023,1023.5,1024,1024.5,1025,1025.5,1026,1026.5,1027,1027.5,1028,1028.5,1029,1029.5,1030,1030.5,1031,1031.5,1032,1032.5,1033,1033.5,1034,1034.5,1035,1035.5,1036,1036.5,1037,1037.5,1038,1038.5,1039,1039.5,1040,1040.5,1041,1041.5,1042,1042.5,1043,1043.5,1044,1044.5,1045,1045.5,1046,1046.5,1047,1047.5,1048,1048.5,1049,1049.5,1050,1050.5,1051,1051.5,1052,1052.5,1053,1053.5,1054,1054.5,1055,1055.5,1056,1056.5,1057,1057.5,1058,1058.5,1059,1059.5,1060,1060.5,1061,1061.5,1062,1062.5,1063,1063.5,1064,1064.5,1065,1065.5,1066,1066.5,1067,1067.5,1068,1068.5,1069,1069.5,1070,1070.5,1071,1071.5,1072,1072.5,1073,1073.5,1074,1074.5,1075,1075.5,1076,1076.5,1077,1077.5,1078,1078.5,1079,1079.5,1080,1080.5,1081,1081.5,1082,1082.5,1083,1083.5,1084,1084.5,1085,1085.5,1086,1086.5,1087,1087.5,1088,1088.5,1089,1089.5,1090,1090.5,1091,1091.5,1092,1092.5,1093,1093.5,1094,1094.5,1095,1095.5,1096,1096.5,1097,1097.5,1098,1098.5,1099,1099.5,1100,1100.5,1101,1101.5,1102,1102.5,1103,1103.5,1104,1104.5,1105,1105.5,1106,1106.5,1107,1107.5,1108,1108.5,1109,1109.5,1110,1110.5,1111,1111.5,1112,1112.5,1113,1113.5,1114,1114.5,1115,1115.5,1116,1116.5,1117,1117.5,1118,1118.5,1119,1119.5,1120,1120.5,1121,1121.5,1122,1122.5,1123,1123.5,1124,1124.5,1125,1125.5,1126,1126.5,1127,1127.5,1128,1128.5,1129,1129.5,1130,1130.5,1131,1131.5,1132,1132.5,1133,1133.5,1134,1134.5,1135,1135.5,1136,1136.5,1137,1137.5,1138,1138.5,1139,1139.5,1140,1140.5,1141,1141.5,1142,1142.5,1143,1143.5,1144,1144.5,1145,1145.5,1146,1146.5,1147,1147.5,1148,1148.5,1149,1149.5,1150,1150.5,1151,1151.5,1152,1152.5,1153,1153.5,1154,1154.5,1155,1155.5,1156,1156.5,1157,1157.5,1158,1158.5,1159,1159.5,1160,1160.5,1161,1161.5,1162,1162.5,1163,1163.5,1164,1164.5,1165,1165.5,1166,1166.5,1167,1167.5,1168,1168.5,1169,1169.5,1170,1170.5,1171,1171.5,1172,1172.5,1173,1173.5,1174,1174.5,1175,1175.5,1176,1176.5,1177,1177.5,1178,1178.5,1179,1179.5,1180,1180.5,1181,1181.5,1182,1182.5,1183,1183.5,1184,1184.5,1185,1185.5,1186,1186.5,1187,1187.5,1188,1188.5,1189,1189.5,1190,1190.5,1191,1191.5,1192,1192.5,1193,1193.5,1194,1194.5,1195,1195.5,1196,1196.5,1197,1197.5,1198,1198.5,1199,1199.5,1200,1200.5,1201,1201.5,1202,1202.5,1203,1203.5,1204,1204.5,1205,1205.5,1206,1206.5,1207,1207.5,1208,1208.5,1209,1209.5,1210,1210.5,1211,1211.5,1212,1212.5,1213,1213.5,1214,1214.5,1215,1215.5,1216,1216.5,1217,1217.5,1218,1218.5,1219,1219.5,1220,1220.5,1221,1221.5,1222,1222.5,1223,1223.5,1224,1224.5,1225,1225.5,1226,1226.5,1227,1227.5,1228,1228.5,1229,1229.5,1230,1230.5,1231,1231.5,1232,1232.5,1233,1233.5,1234,1234.5,1235,1235.5,1236,1236.5,1237,1237.5,1238,1238.5,1239,1239.5,1240,1240.5,1241,1241.5,1242,1242.5,1243,1243.5,1244,1244.5,1245,1245.5,1246,1246.5,1247,1247.5,1248,1248.5,1249,1249.5,1250,1250.5,1251,1251.5,1252,1252.5,1253,1253.5,1254,1254.5,1255,1255.5,1256,1256.5,1257,1257.5,1258,1258.5,1259,1259.5,1260,1260.5,1261,1261.5,1262,1262.5,1263,1263.5,1264,1264.5,1265,1265.5,1266,1266.5,1267,1267.5,1268,1268.5,1269,1269.5,1270,1270.5,1271,1271.5,1272,1272.5,1273,1273.5,1274,1274.5,1275,1275.5,1276,1276.5,1277,1277.5,1278,1278.5,1279,1279.5,1280,1280.5,1281,1281.5,1282,1282.5,1283,1283.5,1284,1284.5,1285,1285.5,1286,1286.5,1287,1287.5,1288,1288.5,1289,1289.5,1290,1290.5,1291,1291.5,1292,1292.5,1293,1293.5,1294,1294.5,1295,1295.5,1296,1296.5,1297,1297.5,1298,1298.5,1299,1299.5,1300,1300.5,1301,1301.5,1302,1302.5,1303,1303.5,1304,1304.5,1305,1305.5,1306,1306.5,1307,1307.5,1308,1308.5,1309,1309.5,1310,1310.5,1311,1311.5,1312,1312.5,1313,1313.5,1314,1314.5,1315,1315.5,1316,1316.5,1317,1317.5,1318,1318.5,1319,1319.5,1320,1320.5,1321,1321.5,1322,1322.5,1323,1323.5,1324,1324.5,1325,1325.5,1326,1326.5,1327,1327.5,1328,1328.5,1329,1329.5,1330,1330.5,1331,1331.5,1332,1332.5,1333,1333.5,1334,1334.5,1335,1335.5,1336,1336.5,1337,1337.5,1338,1338.5,1339,1339.5,1340,1340.5,1341,1341.5,1342,1342.5,1343,1343.5,1344,1344.5,1345,1345.5,1346,1346.5,1347,1347.5,1348,1348.5,1349,1349.5,1350,1350.5,1351,1351.5,1352,1352.5,1353,1353.5,1354,1354.5,1355,1355.5,1356,1356.5,1357,1357.5,1358,1358.5,1359,1359.5,1360,1360.5,1361,1361.5,1362,1362.5,1363,1363.5,1364,1364.5,1365,1365.5,1366,1366.5,1367,1367.5,1368,1368.5,1369,1369.5,1370,1370.5,1371,1371.5,1372,1372.5,1373,1373.5,1374,1374.5,1375,1375.5,1376,1376.5,1377,1377.5,1378,1378.5,1379,1379.5,1380,1380.5,1381,1381.5,1382,1382.5,1383,1383.5,1384,1384.5,1385,1385.5,1386,1386.5,1387,1387.5,1388,1388.5,1389,1389.5,1390,1390.5,1391,1391.5,1392,1392.5,1393,1393.5,1394,1394.5,1395,1395.5,1396,1396.5,1397,1397.5,1398,1398.5,1399,1399.5,1400,1400.5,1401,1401.5,1402,1402.5,1403,1403.5,1404,1404.5,1405,1405.5,1406,1406.5,1407,1407.5,1408,1408.5,1409,1409.5,1410,1410.5,1411,1411.5,1412,1412.5,1413,1413.5,1414,1414.5,1415,1415.5,1416,1416.5,1417,1417.5,1418,1418.5,1419,1419.5,1420,1420.5,1421,1421.5,1422,1422.5,1423,1423.5,1424,1424.5,1425,1425.5,1426,1426.5,1427,1427.5,1428,1428.5,1429,1429.5,1430,1430.5,1431,1431.5,1432,1432.5,1433,1433.5,1434,1434.5,1435,1435.5,1436,1436.5,1437,1437.5,1438,1438.5,1439,1439.5,1440,1440.5,1441,1441.5,1442,1442.5,1443,1443.5,1444,1444.5,1445,1445.5,1446,1446.5,1447,1447.5,1448,1448.5,1449,1449.5,1450,1450.5,1451,1451.5,1452,1452.5,1453,1453.5,1454,1454.5,1455,1455.5,1456,1456.5,1457,1457.5,1458,1458.5,1459,1459.5,1460,1460.5,1461,1461.5,1462,1462.5,1463,1463.5,1464,1464.5,1465,1465.5,1466,1466.5,1467,1467.5,1468,1468.5,1469,1469.5,1470,1470.5,1471,1471.5,1472,1472.5,1473,1473.5,1474,1474.5,1475,1475.5,1476,1476.5,1477,1477.5,1478,1478.5,1479,1479.5,1480,1480.5,1481,1481.5,1482,1482.5,1483,1483.5,1484,1484.5,1485,1485.5,1486,1486.5,1487,1487.5,1488,1488.5,1489,1489.5,1490,1490.5,1491,1491.5,1492,1492.5,1493,1493.5,1494,1494.5,1495,1495.5,1496,1496.5,1497,1497.5,1498,1498.5,1499,1499.5,1500,1500.5,1501,1501.5,1502,1502.5,1503,1503.5,1504,1504.5,1505,1505.5,1506,1506.5,1507,1507.5,1508,1508.5,1509,1509.5,1510,1510.5,1511,1511.5,1512,1512.5,1513,1513.5,1514,1514.5,1515,1515.5,1516,1516.5,1517,1517.5,1518,1518.5,1519,1519.5,1520,1520.5,1521,1521.5,1522,1522.5,1523,1523.5,1524,1524.5,1525,1525.5,1526,1526.5,1527,1527.5,1528,1528.5,1529,1529.5,1530,1530.5,1531,1531.5,1532,1532.5,1533,1533.5,1534,1534.5,1535,1535.5,1536,1536.5,1537,1537.5,1538,1538.5,1539,1539.5,1540,1540.5,1541,1541.5,1542,1542.5,1543,1543.5,1544,1544.5,1545,1545.5,1546,1546.5,1547,1547.5,1548,1548.5,1549,1549.5,1550,1550.5,1551,1551.5,1552,1552.5,1553,1553.5,1554,1554.5,1555,1555.5,1556,1556.5,1557,1557.5,1558,1558.5,1559,1559.5,1560,1560.5,1561,1561.5,1562,1562.5,1563,1563.5,1564,1564.5,1565,1565.5,1566,1566.5,1567,1567.5,1568,1568.5,1569,1569.5,1570,1570.5,1571,1571.5,1572,1572.5,1573,1573.5,1574,1574.5,1575,1575.5,1576,1576.5,1577,1577.5,1578,1578.5,1579,1579.5,1580,1580.5,1581,1581.5,1582,1582.5,1583,1583.5,1584,1584.5,1585,1585.5,1586,1586.5,1587,1587.5,1588,1588.5,1589,1589.5,1590,1590.5,1591,1591.5,1592,1592.5,1593,1593.5,1594,1594.5,1595,1595.5,1596,1596.5,1597,1597.5,1598,1598.5,1599,1599.5,1600,1600.5,1601,1601.5,1602,1602.5,1603,1603.5,1604,1604.5,1605,1605.5,1606,1606.5,1607,1607.5,1608,1608.5,1609,1609.5,1610,1610.5,1611,1611.5,1612,1612.5,1613,1613.5,1614,1614.5,1615,1615.5,1616,1616.5,1617,1617.5,1618,1618.5,1619,1619.5,1620,1620.5,1621,1621.5,1622,1622.5,1623,1623.5,1624,1624.5,1625,1625.5,1626,1626.5,1627,1627.5,1628,1628.5,1629,1629.5,1630,1630.5,1631,1631.5,1632,1632.5,1633,1633.5,1634,1634.5,1635,1635.5,1636,1636.5,1637,1637.5,1638,1638.5,1639,1639.5,1640,1640.5,1641,1641.5,1642,1642.5,1643,1643.5,1644,1644.5,1645,1645.5,1646,1646.5,1647,1647.5,1648,1648.5,1649,1649.5,1650,1650.5,1651,1651.5,1652,1652.5,1653,1653.5,1654,1654.5,1655,1655.5,1656,1656.5,1657,1657.5,1658,1658.5,1659,1659.5,1660,1660.5,1661,1661.5,1662,1662.5,1663,1663.5,1664,1664.5,1665,1665.5,1666,1666.5,1667,1667.5,1668,1668.5,1669,1669.5,1670,1670.5,1671,1671.5,1672,1672.5,1673,1673.5,1674,1674.5,1675,1675.5,1676,1676.5,1677,1677.5,1678,1678.5,1679,1679.5,1680,1680.5,1681,1681.5,1682,1682.5,1683,1683.5,1684,1684.5,1685,1685.5,1686,1686.5,1687,1687.5,1688,1688.5,1689,1689.5,1690,1690.5,1691,1691.5,1692,1692.5,1693,1693.5,1694,1694.5,1695,1695.5,1696,1696.5,1697,1697.5,1698,1698.5,1699,1699.5,1700,1700.5,1701,1701.5,1702,1702.5,1703,1703.5,1704,1704.5,1705,1705.5,1706,1706.5,1707,1707.5,1708,1708.5,1709,1709.5,1710,1710.5,1711,1711.5,1712,1712.5,1713,1713.5,1714,1714.5,1715,1715.5,1716,1716.5,1717,1717.5,1718,1718.5,1719,1719.5,1720,1720.5,1721,1721.5,1722,1722.5,1723,1723.5,1724,1724.5,1725,1725.5,1726,1726.5,1727,1727.5,1728,1728.5,1729,1729.5,1730,1730.5,1731,1731.5,1732,1732.5,1733,1733.5,1734,1734.5,1735,1735.5,1736,1736.5,1737,1737.5,1738,1738.5,1739,1739.5,1740,1740.5,1741,1741.5,1742,1742.5,1743,1743.5,1744,1744.5,1745,1745.5,1746,1746.5,1747,1747.5,1748,1748.5,1749,1749.5,1750,1750.5,1751,1751.5,1752,1752.5,1753,1753.5,1754,1754.5,1755,1755.5,1756,1756.5,1757,1757.5,1758,1758.5,1759,1759.5,1760,1760.5,1761,1761.5,1762,1762.5,1763,1763.5,1764,1764.5,1765,1765.5,1766,1766.5,1767,1767.5,1768,1768.5,1769,1769.5,1770,1770.5,1771,1771.5,1772,1772.5,1773,1773.5,1774,1774.5,1775,1775.5,1776,1776.5,1777,1777.5,1778,1778.5,1779,1779.5,1780,1780.5,1781,1781.5,1782,1782.5,1783,1783.5,1784,1784.5,1785,1785.5,1786,1786.5,1787,1787.5,1788,1788.5,1789,1789.5,1790,1790.5,1791,1791.5,1792,1792.5,1793,1793.5,1794,1794.5,1795,1795.5,1796,1796.5,1797,1797.5,1798,1798.5,1799,1799.5,1800,1800.5,1801,1801.5,1802,1802.5,1803,1803.5,1804,1804.5,1805,1805.5,1806,1806.5,1807,1807.5,1808,1808.5,1809,1809.5,1810,1810.5,1811,1811.5,1812,1812.5,1813,1813.5,1814,1814.5,1815,1815.5,1816,1816.5,1817,1817.5,1818,1818.5,1819,1819.5,1820,1820.5,1821,1821.5,1822,1822.5,1823,1823.5,1824,1824.5,1825,1825.5,1826,1826.5,1827,1827.5,1828,1828.5,1829,1829.5,1830,1830.5,1831,1831.5,1832,1832.5,1833,1833.5,1834,1834.5,1835,1835.5,1836,1836.5,1837,1837.5,1838,1838.5,1839,1839.5,1840,1840.5,1841,1841.5,1842,1842.5,1843,1843.5,1844,1844.5,1845,1845.5,1846,1846.5,1847,1847.5,1848,1848.5,1849,1849.5,1850,1850.5,1851,1851.5,1852,1852.5,1853,1853.5,1854,1854.5,1855,1855.5,1856,1856.5,1857,1857.5,1858,1858.5,1859,1859.5,1860,1860.5,1861,1861.5,1862,1862.5,1863,1863.5,1864,1864.5,1865,1865.5,1866,1866.5,1867,1867.5,1868,1868.5,1869,1869.5,1870,1870.5,1871,1871.5,1872,1872.5,1873,1873.5,1874,1874.5,1875,1875.5,1876,1876.5,1877,1877.5,1878,1878.5,1879,1879.5,1880,1880.5,1881,1881.5,1882,1882.5,1883,1883.5,1884,1884.5,1885,1885.5,1886,1886.5,1887,1887.5,1888,1888.5,1889,1889.5,1890,1890.5,1891,1891.5,1892,1892.5,1893,1893.5,1894,1894.5,1895,1895.5,1896,1896.5,1897,1897.5,1898,1898.5,1899,1899.5,1900,1900.5,1901,1901.5,1902,1902.5,1903,1903.5,1904,1904.5,1905,1905.5,1906,1906.5,1907,1907.5,1908,1908.5,1909,1909.5,1910,1910.5,1911,1911.5,1912,1912.5,1913,1913.5,1914,1914.5,1915,1915.5,1916,1916.5,1917,1917.5,1918,1918.5,1919,1919.5,1920,1920.5,1921,1921.5,1922,1922.5,1923,1923.5,1924,1924.5,1925,1925.5,1926,1926.5,1927,1927.5,1928,1928.5,1929,1929.5,1930,1930.5,1931,1931.5,1932,1932.5,1933,1933.5,1934,1934.5,1935,1935.5,1936,1936.5,1937,1937.5,1938,1938.5,1939,1939.5,1940,1940.5,1941,1941.5,1942,1942.5,1943,1943.5,1944,1944.5,1945,1945.5,1946,1946.5,1947,1947.5,1948,1948.5,1949,1949.5,1950,1950.5,1951,1951.5,1952,1952.5,1953,1953.5,1954,1954.5,1955,1955.5,1956,1956.5,1957,1957.5,1958,1958.5,1959,1959.5,1960,1960.5,1961,1961.5,1962,1962.5,1963,1963.5,1964,1964.5,1965,1965.5,1966,1966.5,1967,1967.5,1968,1968.5,1969,1969.5,1970,1970.5,1971,1971.5,1972,1972.5,1973,1973.5,1974,1974.5,1975,1975.5,1976,1976.5,1977,1977.5,1978,1978.5,1979,1979.5,1980,1980.5,1981,1981.5,1982,1982.5,1983,1983.5,1984,1984.5,1985,1985.5,1986,1986.5,1987,1987.5,1988,1988.5,1989,1989.5,1990,1990.5,1991,1991.5,1992,1992.5,1993,1993.5,1994,1994.5,1995,1995.5,1996,1996.5,1997,1997.5,1998,1998.5,1999,1999.5,2000,2000.5,2001,2001.5,2002,2002.5,2003,2003.5,2004,2004.5,2005,2005.5,2006,2006.5,2007,2007.5,2008,2008.5,2009,2009.5,2010,2010.5,2011,2011.5,2012,2012.5,2013,2013.5,2014,2014.5,2015,2015.5,2016,2016.5,2017,2017.5,2018,2018.5,2019,2019.5,2020,2020.5,2021,2021.5,2022,2022.5,2023,2023.5,2024,2024.5,2025,2025.5,2026,2026.5,2027,2027.5,2028,2028.5,2029,2029.5,2030,2030.5,2031,2031.5,2032,2032.5,2033,2033.5,2034,2034.5,2035,2035.5,2036,2036.5,2037,2037.5,2038,2038.5,2039,2039.5,2040,2040.5,2041,2041.5,2042,2042.5,2043,2043.5,2044,2044.5,2045,2045.5,2046,2046.5,2047,2047.5,2048,2048.5,2049,2049.5,2050,2050.5,2051,2051.5,2052,2052.5,2053,2053.5,2054,2054.5,2055,2055.5,2056,2056.5,2057,2057.5,2058,2058.5,2059,2059.5,2060,2060.5,2061,2061.5,2062,2062.5,2063,2063.5,2064,2064.5,2065,2065.5,2066,2066.5,2067,2067.5,2068,2068.5,2069,2069.5,2070,2070.5,2071,2071.5,2072,2072.5,2073,2073.5,2074,2074.5,2075,2075.5,2076,2076.5,2077,2077.5,2078,2078.5,2079,2079.5,2080,2080.5,2081,2081.5,2082,2082.5,2083,2083.5,2084,2084.5,2085,2085.5,2086,2086.5,2087,2087.5,2088,2088.5,2089,2089.5,2090,2090.5,2091,2091.5,2092,2092.5,2093,2093.5,2094,2094.5,2095,2095.5,2096,2096.5,2097,2097.5,2098,2098.5,2099,2099.5,2100,2100.5,2101,2101.5,2102,2102.5,2103,2103.5,2104,2104.5,2105,2105.5,2106,2106.5,2107,2107.5,2108,2108.5,2109,2109.5,2110,2110.5,2111,2111.5,2112,2112.5,2113,2113.5,2114,2114.5,2115,2115.5,2116,2116.5,2117,2117.5,2118,2118.5,2119,2119.5,2120,2120.5,2121,2121.5,2122,2122.5,2123,2123.5,2124,2124.5,2125,2125.5,2126,2126.5,2127,2127.5,2128,2128.5,2129,2129.5,2130,2130.5,2131,2131.5,2132,2132.5,2133,2133.5,2134,2134.5,2135,2135.5,2136,2136.5,2137,2137.5,2138,2138.5,2139,2139.5,2140,2140.5,2141,2141.5,2142,2142.5,2143,2143.5,2144,2144.5,2145,2145.5,2146,2146.5,2147,2147.5,2148,2148.5,2149,2149.5,2150,2150.5,2151,2151.5,2152,2152.5,2153,2153.5,2154,2154.5,2155,2155.5,2156,2156.5,2157,2157.5,2158,2158.5,2159,2159.5,2160,2160.5,2161,2161.5,2162,2162.5,2163,2163.5,2164,2164.5,2165,2165.5,2166,2166.5,2167,2167.5,2168,2168.5,2169,2169.5,2170,2170.5,2171,2171.5,2172,2172.5,2173,2173.5,2174,2174.5,2175,2175.5,2176,2176.5,2177,2177.5,2178,2178.5,2179,2179.5,2180,2180.5,2181,2181.5,2182,2182.5,2183,2183.5,2184,2184.5,2185,2185.5,2186,2186.5,2187,2187.5,2188,2188.5,2189,2189.5,2190,2190.5,2191,2191.5,2192,2192.5,2193,2193.5,2194,2194.5,2195,2195.5,2196,2196.5,2197,2197.5,2198,2198.5,2199,2199.5,2200,2200.5,2201,2201.5,2202,2202.5,2203,2203.5,2204,2204.5,2205,2205.5,2206,2206.5,2207,2207.5,2208,2208.5,2209,2209.5,2210,2210.5,2211,2211.5,2212,2212.5,2213,2213.5,2214,2214.5,2215,2215.5,2216,2216.5,2217,2217.5,2218,2218.5,2219,2219.5,2220,2220.5,2221,2221.5,2222,2222.5,2223,2223.5,2224,2224.5,2225,2225.5,2226,2226.5,2227,2227.5,2228,2228.5,2229,2229.5,2230,2230.5,2231,2231.5,2232,2232.5,2233,2233.5,2234,2234.5,2235,2235.5,2236,2236.5,2237,2237.5,2238,2238.5,2239,2239.5,2240,2240.5,2241,2241.5,2242,2242.5,2243,2243.5,2244,2244.5,2245,2245.5,2246,2246.5,2247,2247.5,2248,2248.5,2249,2249.5,2250,2250.5,2251,2251.5,2252,2252.5,2253,2253.5,2254,2254.5,2255,2255.5,2256,2256.5,2257,2257.5,2258,2258.5,2259,2259.5,2260,2260.5,2261,2261.5,2262,2262.5,2263,2263.5,2264,2264.5,2265,2265.5,2266,2266.5,2267,2267.5,2268,2268.5,2269,2269.5,2270,2270.5,2271,2271.5,2272,2272.5,2273,2273.5,2274,2274.5,2275,2275.5,2276,2276.5,2277,2277.5,2278,2278.5,2279,2279.5,2280,2280.5,2281,2281.5,2282,2282.5,2283,2283.5,2284,2284.5,2285,2285.5,2286,2286.5,2287,2287.5,2288,2288.5,2289,2289.5,2290,2290.5,2291,2291.5,2292,2292.5,2293,2293.5,2294,2294.5,2295,2295.5,2296,2296.5,2297,2297.5,2298,2298.5,2299,2299.5,2300,2300.5,2301,2301.5,2302,2302.5,2303,2303.5,2304,2304.5,2305,2305.5,2306,2306.5,2307,2307.5,2308,2308.5,2309,2309.5,2310,2310.5,2311,2311.5,2312,2312.5,2313,2313.5,2314,2314.5,2315,2315.5,2316,2316.5,2317,2317.5,2318,2318.5,2319,2319.5,2320,2320.5,2321,2321.5,2322,2322.5,2323,2323.5,2324,2324.5,2325,2325.5,2326,2326.5,2327,2327.5,2328,2328.5,2329,2329.5,2330,2330.5,2331,2331.5,2332,2332.5,2333,2333.5,2334,2334.5,2335,2335.5,2336,2336.5,2337,2337.5,2338,2338.5,2339,2339.5,2340,2340.5,2341,2341.5,2342,2342.5,2343,2343.5,2344,2344.5,2345,2345.5,2346,2346.5,2347,2347.5,2348,2348.5,2349,2349.5,2350,2350.5,2351,2351.5,2352,2352.5,2353,2353.5,2354,2354.5,2355,2355.5,2356,2356.5,2357,2357.5,2358,2358.5,2359,2359.5,2360,2360.5,2361,2361.5,2362,2362.5,2363,2363.5,2364,2364.5,2365,2365.5,2366,2366.5,2367,2367.5,2368,2368.5,2369,2369.5,2370,2370.5,2371,2371.5,2372,2372.5,2373,2373.5,2374,2374.5,2375,2375.5,2376,2376.5,2377,2377.5,2378,2378.5,2379,2379.5,2380,2380.5,2381,2381.5,2382,2382.5,2383,2383.5,2384,2384.5,2385,2385.5,2386,2386.5,2387,2387.5,2388,2388.5,2389,2389.5,2390,2390.5,2391,2391.5,2392,2392.5,2393,2393.5,2394,2394.5,2395,2395.5,2396,2396.5,2397,2397.5,2398,2398.5,2399,2399.5,2400,2400.5,2401,2401.5,2402,2402.5,2403,2403.5,2404,2404.5,2405,2405.5,2406,2406.5,2407,2407.5,2408,2408.5,2409,2409.5,2410,2410.5,2411,2411.5,2412,2412.5,2413,2413.5,2414,2414.5,2415,2415.5,2416,2416.5,2417,2417.5,2418,2418.5,2419,2419.5,2420,2420.5,2421,2421.5,2422,2422.5,2423,2423.5,2424,2424.5,2425,2425.5,2426,2426.5,2427,2427.5,2428,2428.5,2429,2429.5,2430,2430.5,2431,2431.5,2432,2432.5,2433,2433.5,2434,2434.5,2435,2435.5,2436,2436.5,2437,2437.5,2438,2438.5,2439,2439.5,2440,2440.5,2441,2441.5,2442,2442.5,2443,2443.5,2444,2444.5,2445,2445.5,2446,2446.5,2447,2447.5,2448,2448.5,2449,2449.5,2450,2450.5,2451,2451.5,2452,2452.5,2453,2453.5,2454,2454.5,2455,2455.5,2456,2456.5,2457,2457.5,2458,2458.5,2459,2459.5,2460,2460.5,2461,2461.5,2462,2462.5,2463,2463.5,2464,2464.5,2465,2465.5,2466,2466.5,2467,2467.5,2468,2468.5,2469,2469.5,2470,2470.5,2471,2471.5,2472,2472.5,2473,2473.5,2474,2474.5,2475,2475.5,2476,2476.5,2477,2477.5,2478,2478.5,2479,2479.5,2480,2480.5,2481,2481.5,2482,2482.5,2483,2483.5,2484,2484.5,2485,2485.5,2486,2486.5,2487,2487.5,2488,2488.5,2489,2489.5,2490,2490.5,2491,2491.5,2492,2492.5,2493,2493.5,2494,2494.5,2495,2495.5,2496,2496.5,2497,2497.5,2498,2498.5,2499,2499.5
F24-3582,CIAT-BR-02-1752,Urochloa interespecific,Grass,96.03,15.7,84.3,10.92,21.14,55.41,37.05,74.98,156.06,67.39,4.32,13.98,14.61,22.79,33.83,100.28,0.8690957,0.8693673,0.8695719,0.8697132,0.8697968,0.8698272,0.8698113,0.8697519,0.8696507,0.8695124,0.8693379,0.86913,0.868889,0.8686173,0.8683174,0.8679928,0.8676443,0.8672758,0.8668887,0.866487,0.8660697,0.8656375,0.8651915,0.86473,0.8642526,0.8637561,0.8632431,0.862711,0.8621592,0.8615898,0.8610072,0.8604102,0.8598024,0.8591864,0.8585688,0.8579493,0.8573289,0.8567085,0.8560882,0.8554685,0.8548476,0.8542224,0.8535903,0.852951,0.8523023,0.8516432,0.8509748,0.8502973,0.8496098,0.8489147,0.8482141,0.8475088,0.8468016,0.8460949,0.845391,0.8446906,0.843995,0.8433037,0.8426179,0.8419392,0.8412646,0.8405957,0.8399324,0.8392718,0.8386174,0.8379653,0.8373186,0.8366788,0.8360441,0.8354156,0.8347944,0.8341808,0.8335753,0.8329779,0.8323889,0.8318071,0.8312291,0.8306544,0.8300853,0.8295242,0.828971,0.8284259,0.8278884,0.8273614,0.8268467,0.8263451,0.8258569,0.8253823,0.8249198,0.8244675,0.8240256,0.8235949,0.8231745,0.8227657,0.8223696,0.8219852,0.8216114,0.8212468,0.8208935,0.8205515,0.8202192,0.8198989,0.8195923,0.8193018,0.8190259,0.8187632,0.8185167,0.8182855,0.8180675,0.8178642,0.8176736,0.8174909,0.8173156,0.8171499,0.8169903,0.8168326,0.8166727,0.8165122,0.8163508,0.8161878,0.8160254,0.8158624,0.8156945,0.8155214,0.8153417,0.8151542,0.8149597,0.8147562,0.8145414,0.8143151,0.8140758,0.8138233,0.8135567,0.8132752,0.8129793,0.8126702,0.8123476,0.8120095,0.8116561,0.8112885,0.8109077,0.810515,0.8101109,0.8096955,0.809272,0.8088417,0.8084041,0.8079584,0.8075035,0.8070383,0.8065625,0.8060772,0.8055822,0.8050788,0.8045704,0.8040574,0.803539,0.8030126,0.8024774,0.8019357,0.8013877,0.8008372,0.8002841,0.7997281,0.7991685,0.7986044,0.7980343,0.7974569,0.796872,0.7962786,0.7956743,0.7950576,0.794425,0.7937715,0.7930946,0.7923936,0.7916691,0.7909184,0.7901389,0.7893286,0.7884846,0.7876049,0.7866872,0.7857296,0.78473,0.7836857,0.782597,0.7814604,0.7802728,0.7790331,0.7777386,0.7763893,0.7749857,0.7735263,0.7720084,0.7704287,0.7687843,0.7670732,0.7652969,0.7634555,0.7615485,0.7595758,0.7575374,0.755431,0.75326,0.7510247,0.7487265,0.7463666,0.7439457,0.7414652,0.7389274,0.7363333,0.7336841,0.7309813,0.7282274,0.7254238,0.7225727,0.7196758,0.7167334,0.7137502,0.7107298,0.7076749,0.7045882,0.7014729,0.6983322,0.6951668,0.6919818,0.6887826,0.6855732,0.6823592,0.6791443,0.6759322,0.6727279,0.6695368,0.6663628,0.663211,0.6600872,0.6569944,0.6539369,0.6509194,0.6479461,0.645022,0.6421514,0.6393384,0.6365874,0.6339021,0.6312862,0.6287439,0.6262785,0.6238926,0.6215894,0.6193713,0.6172407,0.6151989,0.6132473,0.6113854,0.6096141,0.6079338,0.6063441,0.604844,0.6034321,0.6021061,0.600864,0.5997022,0.5986186,0.5976087,0.5966682,0.5957929,0.5949796,0.5942218,0.5935141,0.5928509,0.5922273,0.5916373,0.5910754,0.5905354,0.5900124,0.5895014,0.5889964,0.588493,0.5879852,0.5874699,0.586944,0.5864043,0.5858461,0.5852684,0.58467,0.5840499,0.5834075,0.5827424,0.5820534,0.5813427,0.5806115,0.579862,0.5790958,0.5783158,0.5775245,0.5767243,0.5759191,0.5751128,0.5743071,0.5735066,0.5727156,0.5719377,0.5711761,0.5704345,0.5697151,0.5690209,0.5683557,0.5677221,0.5671241,0.5665632,0.56604,0.5655568,0.5651143,0.5647165,0.5643625,0.5640529,0.5637869,0.5635653,0.5633878,0.5632542,0.5631638,0.5631157,0.5631094,0.5631433,0.5632167,0.5633284,0.5634772,0.5636609,0.5638787,0.5641286,0.5644091,0.5647186,0.5650551,0.5654173,0.5658019,0.5662078,0.5666334,0.5670764,0.5675358,0.5680089,0.5684955,0.5689937,0.5695013,0.5700164,0.5705378,0.5710639,0.5715937,0.5721253,0.5726578,0.5731902,0.5737208,0.5742477,0.5747721,0.5752928,0.5758098,0.576323,0.5768315,0.5773356,0.577835,0.5783299,0.57882,0.5793055,0.5797865,0.5802607,0.5807291,0.5811929,0.5816531,0.5821111,0.5825671,0.5830216,0.5834756,0.583929,0.5843814,0.5848319,0.5852814,0.5857303,0.5861792,0.5866299,0.5870832,0.5875397,0.5880004,0.5884659,0.5889375,0.5894157,0.5899016,0.5903961,0.5908998,0.5914136,0.5919361,0.5924679,0.5930114,0.5935677,0.5941382,0.5947247,0.5953277,0.5959464,0.5965797,0.5972282,0.597892,0.5985708,0.5992641,0.5999717,0.6006927,0.6014269,0.602173,0.6029302,0.6036969,0.6044724,0.6052547,0.606042,0.6068326,0.6076255,0.6084182,0.6092094,0.6099974,0.6107787,0.6115515,0.6123133,0.6130617,0.6137958,0.6145129,0.6152115,0.6158894,0.6165454,0.6171778,0.6177853,0.6183659,0.6189195,0.6194447,0.6199408,0.620407,0.6208429,0.6212484,0.6216239,0.6219687,0.6222836,0.6225692,0.6228263,0.6230547,0.6232563,0.6234304,0.6235791,0.6237039,0.6238068,0.6238902,0.6239568,0.6240085,0.6240479,0.6240774,0.6240982,0.6241144,0.6241289,0.6241439,0.624164,0.6241927,0.6242338,0.6242906,0.6243646,0.6244617,0.6245861,0.6247416,0.6249321,0.6251602,0.62543,0.6257454,0.6261088,0.6265228,0.6269931,0.6275197,0.6281049,0.6287523,0.6294622,0.630236,0.6310753,0.6319787,0.632946,0.6339784,0.6350735,0.6362299,0.6374464,0.638721,0.6400515,0.6414352,0.6428672,0.6443458,0.6458679,0.64743,0.6490275,0.650658,0.6523166,0.6540012,0.6557088,0.6574357,0.6591805,0.6609414,0.662717,0.6645063,0.6663092,0.6681257,0.6699563,0.6718023,0.6736655,0.6755472,0.6774498,0.6793773,0.681331,0.6833144,0.6853296,0.6873785,0.6894638,0.6915869,0.6937499,0.6959534,0.6981974,0.700482,0.702806,0.7051672,0.7075626,0.7099887,0.7124408,0.714914,0.7174018,0.719897,0.7223936,0.7248821,0.7273531,0.7297967,0.732203,0.7345626,0.7368637,0.7390952,0.7412457,0.7433043,0.7452599,0.7471021,0.7488201,0.7504033,0.7518424,0.753128,0.7542512,0.7552041,0.7559793,0.7565709,0.7569737,0.757181,0.757187,0.7569878,0.7565801,0.7559602,0.7551249,0.754073,0.7528014,0.7513086,0.7495932,0.7476542,0.7454911,0.7431026,0.7404891,0.7376514,0.7345899,0.7313059,0.7278008,0.7240765,0.7201357,0.7159821,0.7116189,0.7070503,0.7022809,0.6973167,0.6921638,0.6868294,0.6813207,0.6756459,0.6698136,0.6638337,0.6577154,0.6514686,0.6451034,0.6386303,0.6320602,0.6254045,0.6186735,0.611878,0.6050285,0.5981358,0.5912101,0.5842616,0.5773001,0.5703358,0.5633768,0.5564318,0.549509,0.5426158,0.53576,0.5289483,0.5221874,0.5154833,0.5088417,0.5022681,0.4957675,0.4893442,0.4830028,0.4767465,0.4705794,0.4645047,0.4585253,0.4526437,0.4468627,0.4411838,0.4356085,0.4301384,0.4247745,0.4195177,0.4143686,0.409327,0.4043935,0.3995683,0.3948509,0.3902407,0.3857372,0.3813393,0.3770455,0.3728555,0.3687676,0.3647811,0.3608938,0.3571046,0.3534118,0.3498155,0.3463117,0.3428989,0.3395748,0.3363376,0.3331855,0.3301161,0.3271278,0.3242181,0.3213854,0.3186276,0.3159426,0.3133287,0.3107836,0.3083057,0.3058929,0.3035436,0.3012559,0.2990283,0.2968599,0.294748,0.2926913,0.2906882,0.2887376,0.2868379,0.2849878,0.2831863,0.2814319,0.2797233,0.2780598,0.2764402,0.2748635,0.2733287,0.271835,0.2703814,0.2689672,0.2675912,0.2662526,0.2649507,0.2636845,0.2624529,0.2612558,0.2600925,0.2589621,0.257864,0.2567977,0.2557624,0.2547579,0.2537836,0.2528384,0.2519218,0.2510328,0.250171,0.2493356,0.2485258,0.2477411,0.2469808,0.2462443,0.2455311,0.24484,0.2441704,0.2435215,0.2428927,0.2422832,0.2416922,0.241119,0.2405627,0.2400223,0.2394971,0.2389857,0.2384875,0.2380014,0.2375262,0.2370612,0.2366055,0.2361581,0.2357177,0.2352832,0.2348538,0.2344282,0.2340057,0.2335851,0.2331659,0.232747,0.2323277,0.2319071,0.2314841,0.2310583,0.2306291,0.2301962,0.2297593,0.2293175,0.228871,0.2284198,0.2279639,0.2275034,0.2270379,0.2265677,0.2260929,0.2256137,0.2251303,0.224643,0.2241526,0.2236594,0.2231643,0.2226678,0.2221705,0.2216733,0.2211768,0.2206821,0.2201897,0.2196999,0.2192138,0.2187318,0.2182548,0.2177834,0.2173172,0.2168572,0.2164034,0.2159566,0.215517,0.2150849,0.2146605,0.2142439,0.2138351,0.2134343,0.2130414,0.2126564,0.2122794,0.2119102,0.2115489,0.2111952,0.210849,0.2105104,0.2101791,0.2098549,0.2095378,0.2092276,0.2089236,0.2086261,0.2083345,0.2080481,0.2077666,0.20749,0.2072181,0.2069503,0.2066862,0.2064261,0.2061693,0.2059153,0.2056639,0.2054151,0.2051689,0.204925,0.204683,0.2044427,0.2042043,0.2039675,0.2037318,0.2034973,0.203264,0.2030311,0.2027987,0.2025673,0.2023363,0.202106,0.2018763,0.2016474,0.201419,0.2011911,0.2009637,0.2007366,0.2005101,0.2002837,0.2000576,0.1998318,0.199606,0.1993802,0.1991543,0.1989285,0.1987023,0.1984763,0.1982505,0.1980253,0.197801,0.1975777,0.1973557,0.1971352,0.1969164,0.1966992,0.196484,0.1962708,0.1960594,0.1958499,0.1956424,0.195437,0.1952333,0.1950316,0.1948319,0.194634,0.1944382,0.1942443,0.194052,0.1938612,0.1936724,0.1934851,0.1932994,0.193115,0.1929321,0.1927506,0.1925699,0.1923902,0.1922117,0.1920344,0.1918577,0.1916817,0.1915067,0.191332,0.1911577,0.1909842,0.1908105,0.1906371,0.1904645,0.1902922,0.1901206,0.1899496,0.1897791,0.1896093,0.1894404,0.1892722,0.1891046,0.1889373,0.1887708,0.1886048,0.1884398,0.1882755,0.1881117,0.1879484,0.1877851,0.1876217,0.1874586,0.1872957,0.1871334,0.1869719,0.1868112,0.1866512,0.1864922,0.1863342,0.1861769,0.1860205,0.1858648,0.18571,0.1855561,0.185403,0.1852508,0.1850996,0.1849494,0.1848001,0.1846517,0.1845043,0.1843582,0.1842141,0.1840709,0.1839288,0.1837873,0.1836468,0.183507,0.183368,0.18323,0.1830929,0.1829571,0.1828223,0.1826886,0.1825559,0.1824237,0.1822923,0.1821621,0.1820326,0.181904,0.1817765,0.18165,0.1815246,0.1814004,0.1812779,0.1811564,0.1810358,0.1809162,0.1807978,0.1806802,0.1805636,0.1804476,0.1803326,0.1802183,0.1801042,0.1799899,0.1798756,0.1797616,0.1796483,0.1795361,0.1794248,0.1793143,0.1792047,0.179096,0.1789879,0.1788804,0.1787738,0.1786679,0.1785643,0.1784611,0.1783592,0.1782588,0.1781597,0.1780611,0.1779631,0.1778649,0.1777672,0.1776692,0.1775712,0.1774729,0.1773751,0.1772775,0.1771803,0.1770838,0.176988,0.1768931,0.1767987,0.176705,0.1766117,0.1765193,0.1764275,0.1763365,0.1762462,0.1761565,0.1760682,0.1759815,0.1758946,0.1758079,0.1757218,0.1756363,0.1755514,0.1754671,0.1753833,0.1752995,0.1752164,0.175134,0.175052,0.1749704,0.1748889,0.174808,0.1747274,0.1746473,0.174568,0.1744892,0.1744111,0.1743333,0.1742558,0.1741785,0.1741022,0.174026,0.1739501,0.1738745,0.1737987,0.1737234,0.1736482,0.1735732,0.1734983,0.1734236,0.1733493,0.1732751,0.173201,0.1731271,0.1730535,0.1729801,0.1729075,0.1728357,0.1727642,0.1726929,0.1726222,0.1725518,0.1724816,0.1724113,0.1723413,0.1722712,0.1722009,0.1721303,0.1720595,0.1719884,0.171917,0.1718452,0.1717734,0.1717015,0.1716293,0.1715569,0.1714841,0.1714112,0.1713378,0.1712644,0.1711908,0.171117,0.1710428,0.1709688,0.1708945,0.1708199,0.170745,0.1706697,0.1705944,0.1705188,0.170443,0.1703671,0.1702911,0.170215,0.1701389,0.1700628,0.1699866,0.1699106,0.1698346,0.1697591,0.1696835,0.1696081,0.1695326,0.1694571,0.1693815,0.1693059,0.1692303,0.1691544,0.1690779,0.1690013,0.168925,0.1688487,0.1687729,0.1686972,0.1686215,0.1685462,0.168471,0.168396,0.1683213,0.1682468,0.1681726,0.1680985,0.1680246,0.1679507,0.1678769,0.1678031,0.1677294,0.1676561,0.167583,0.1675105,0.1674381,0.1673662,0.1672947,0.1672238,0.1671533,0.1670841,0.1670155,0.1669476,0.1668802,0.1668137,0.1667477,0.1666825,0.1666179,0.1665541,0.1664912,0.1664291,0.166368,0.1663077,0.1662484,0.16619,0.1661326,0.1660761,0.1660212,0.1659675,0.1659147,0.1658628,0.1658119,0.165762,0.165713,0.1656649,0.1656177,0.1655714,0.165526,0.1654815,0.1654377,0.165395,0.1653521,0.1653098,0.1652685,0.1652278,0.1651877,0.1651484,0.1651098,0.1650718,0.165035,0.1649988,0.1649631,0.1649281,0.164894,0.1648606,0.1648276,0.1647957,0.1647648,0.1647346,0.1647051,0.1646762,0.1646479,0.1646201,0.1645931,0.1645664,0.1645401,0.1645143,0.1644887,0.1644629,0.1644371,0.1644117,0.1643865,0.1643612,0.1643358,0.1643104,0.1642848,0.1642591,0.1642329,0.1642065,0.1641798,0.1641525,0.1641246,0.1640959,0.1640669,0.1640373,0.1640077,0.163978,0.1639479,0.1639171,0.1638857,0.1638534,0.1638205,0.1637869,0.1637527,0.1637177,0.1636819,0.1636453,0.163608,0.1635697,0.1635307,0.1634909,0.1634503,0.1634088,0.1633666,0.1633236,0.1632799,0.1632354,0.1631903,0.1631446,0.1630986,0.1630521,0.1630048,0.1629568,0.162908,0.1628583,0.1628079,0.1627566,0.1627051,0.1626533,0.1626011,0.1625484,0.1624953,0.1624416,0.1623876,0.1623331,0.1622782,0.162223,0.1621674,0.1621115,0.1620555,0.1619994,0.1619431,0.1618864,0.1618295,0.1617725,0.1617153,0.1616579,0.1616005,0.1615429,0.1614853,0.1614275,0.1613693,0.161311,0.1612523,0.1611934,0.1611347,0.1610759,0.1610169,0.1609577,0.1608985,0.1608392,0.1607797,0.1607202,0.1606604,0.1606007,0.1605408,0.1604804,0.1604196,0.1603588,0.1602975,0.160236,0.1601745,0.1601126,0.1600505,0.1599882,0.1599253,0.159862,0.1597986,0.1597351,0.1596715,0.1596079,0.1595442,0.1594804,0.1594166,0.1593527,0.1592887,0.1592246,0.1591607,0.1590966,0.1590324,0.1589681,0.1589038,0.1588399,0.1587757,0.1587115,0.1586476,0.1585833,0.1585192,0.158455,0.158391,0.1583273,0.1582639,0.1582006,0.1581376,0.1580747,0.1580121,0.1579489,0.1578858,0.1578228,0.1577599,0.1576972,0.1576347,0.157572,0.1575095,0.1574471,0.1573843,0.1573216,0.1572593,0.1571974,0.1571355,0.1570738,0.1570126,0.1569513,0.1568903,0.1568292,0.1567681,0.1567073,0.1566463,0.1565856,0.1565263,0.1564677,0.1564091,0.1563509,0.1562926,0.1562344,0.1561766,0.1561187,0.1560608,0.156003,0.1559452,0.1558873,0.1558295,0.1557716,0.1557136,0.1556557,0.1555978,0.1555399,0.1554822,0.1554249,0.1553673,0.1553098,0.1552525,0.155195,0.1551375,0.1550799,0.1550222,0.1549646,0.1549066,0.1548484,0.1547904,0.1547323,0.154674,0.1546156,0.1545571,0.1544988,0.1544398,0.1543808,0.1543216,0.1542625,0.1542034,0.1541443,0.1540851,0.1540259,0.1539668,0.1539077,0.1538486,0.1537895,0.1537304,0.1536714,0.1536123,0.1535533,0.1534942,0.1534353,0.1533761,0.1533163,0.1532571,0.1531981,0.1531391,0.1530799,0.1530216,0.1529631,0.1529047,0.1528461,0.1527871,0.1527277,0.1526678,0.1526077,0.1525473,0.1524869,0.1524266,0.1523662,0.1523062,0.152246,0.1521855,0.152125,0.1520657,0.1520081,0.1519514,0.1518955,0.1518403,0.151786,0.1517321,0.1516786,0.151625,0.1515715,0.1515173,0.151463,0.1514079,0.1513519,0.1512948,0.1512371,0.1511786,0.1511183,0.1510573,0.1509948,0.1509311,0.1508664,0.1508006,0.1507336,0.1506654,0.1505963,0.1505261,0.150455,0.1503828,0.1503098,0.1502362,0.1501623,0.1500882,0.1512544,0.1512092,0.1511642,0.1511192,0.1510744,0.1510295,0.1509845,0.1509394,0.1508946,0.1508502,0.1508068,0.1507646,0.1507238,0.1506843,0.1506462,0.1506092,0.1505732,0.1505379,0.1505033,0.1504691,0.1504352,0.1504015,0.150368,0.1503349,0.1503024,0.1502708,0.1502405,0.1502117,0.1501849,0.1501601,0.1501374,0.1501168,0.1500981,0.150081,0.1500655,0.1500512,0.1500381,0.150026,0.150015,0.1500051,0.1499963,0.1499886,0.1499823,0.1499772,0.1499735,0.1499711,0.1499701,0.1499703,0.1499718,0.1499746,0.1499788,0.1499845,0.1499921,0.1500017,0.1500136,0.1500283,0.1500458,0.1500664,0.15009,0.1501166,0.1501462,0.1501786,0.1502139,0.1502518,0.1502925,0.1503359,0.1503821,0.1504308,0.1504821,0.1505357,0.1505916,0.1506495,0.1507091,0.1507702,0.1508327,0.1508965,0.1509616,0.1510279,0.1510955,0.1511645,0.151235,0.1513068,0.1513802,0.1514551,0.1515319,0.1516105,0.1516911,0.1517738,0.1518586,0.1519456,0.1520344,0.1521251,0.1522174,0.1523114,0.1524067,0.1525033,0.1526013,0.152701,0.1528025,0.1529061,0.1530117,0.1531195,0.1532296,0.1533418,0.1534561,0.1535724,0.1536903,0.1538096,0.15393,0.1540512,0.1541732,0.1542956,0.1544186,0.1545418,0.1546652,0.1547889,0.1549127,0.1550366,0.1551604,0.1552841,0.1554074,0.15553,0.1556516,0.1557718,0.1558904,0.1560072,0.1561218,0.156234,0.1563438,0.1564509,0.1565554,0.1566575,0.1567575,0.1568555,0.1569518,0.1570465,0.1571399,0.1572322,0.1573235,0.1574138,0.1575031,0.1575916,0.1576795,0.1577668,0.1578537,0.1579404,0.1580271,0.1581139,0.1582012,0.158289,0.1583776,0.1584671,0.1585577,0.1586491,0.1587415,0.1588347,0.1589286,0.1590227,0.159117,0.159211,0.1593046,0.1593977,0.1594899,0.1595812,0.1596712,0.15976,0.159847,0.1599321,0.160015,0.1600957,0.1601739,0.1602494,0.160322,0.1603916,0.160458,0.1605209,0.1605799,0.1606352,0.1606865,0.1607339,0.1607772,0.1608166,0.1608523,0.1608846,0.160914,0.1609406,0.1609643,0.1609853,0.1610036,0.1610194,0.1610324,0.1610428,0.1610506,0.1610561,0.1610594,0.1610606,0.1610597,0.161057,0.1610524,0.1610461,0.161038,0.1610283,0.1610168,0.1610036,0.1609886,0.1609717,0.1609527,0.1609316,0.1609083,0.1608827,0.1608546,0.1608243,0.1607916,0.1607565,0.1607187,0.1606781,0.1606345,0.1605874,0.1605367,0.1604822,0.1604237,0.1603614,0.1602952,0.1602251,0.1601512,0.1600738,0.1599929,0.1599084,0.1598203,0.1597287,0.1596335,0.159535,0.159433,0.1593276,0.1592189,0.1591069,0.1589917,0.1588734,0.1587521,0.1586282,0.158502,0.1583735,0.1582433,0.1581116,0.1579788,0.1578451,0.1577107,0.1575758,0.1574408,0.1573057,0.1571709,0.1570365,0.1569025,0.1567688,0.1566357,0.1565032,0.1563713,0.1562402,0.15611,0.1559808,0.1558526,0.1557257,0.1556001,0.1554757,0.1553526,0.1552308,0.15511,0.1549903,0.1548714,0.1547533,0.1546359,0.1545192,0.1544034,0.1542888,0.1541753,0.154063,0.1539518,0.1538418,0.1537328,0.1536245,0.153517,0.1534101,0.1533038,0.1531983,0.1530938,0.1529904,0.1528881,0.1527872,0.1526877,0.1525896,0.1524927,0.152397,0.1523024,0.152209,0.1521165,0.1520251,0.1519347,0.1518452,0.1517568,0.1516693,0.1515829,0.1514973,0.1514128,0.1513292,0.1512467,0.1511654,0.1510855,0.1510069,0.1509299,0.1508546,0.150781,0.1507091,0.150639,0.1505705,0.1505034,0.1504377,0.1503731,0.1503098,0.1502479,0.1501871,0.1501276,0.1500694,0.1500123,0.1499565,0.1499017,0.1498479,0.1497948,0.1497425,0.1496908,0.1496394,0.1495881,0.1495369,0.1494857,0.1494347,0.1493835,0.1493324,0.1492812,0.1492301,0.149179,0.1491276,0.149076,0.1490242,0.1489723,0.1489203,0.1488679,0.1488153,0.1487623,0.1487086,0.1486543,0.1485993,0.1485435,0.148487,0.1484299,0.1483721,0.1483137,0.1482546,0.1481947,0.148134,0.1480725,0.1480103,0.1479476,0.1478844,0.1478209,0.1477573,0.1476938,0.1476305,0.1475672,0.1475043,0.1474416,0.1473792,0.1473171,0.1472554,0.1471942,0.1471335,0.1470733,0.1470138,0.1469547,0.1468963,0.1468384,0.1467812,0.1467249,0.1466697,0.1466158,0.1465634,0.1465125,0.1464631,0.1464153,0.1463691,0.1463244,0.1462811,0.1462391,0.1461986,0.1461594,0.1461214,0.1460846,0.1460489,0.1460142,0.1459805,0.1459479,0.1459165,0.1458865,0.1458579,0.1458311,0.1458062,0.1457833,0.1457623,0.1457434,0.1457266,0.145712,0.1456994,0.145689,0.1456808,0.1456746,0.1456705,0.1456682,0.1456678,0.1456691,0.1456721,0.1456767,0.1456831,0.1456913,0.1457015,0.1457137,0.1457281,0.1457446,0.1457635,0.1457845,0.1458077,0.1458333,0.1458611,0.145891,0.1459231,0.1459576,0.1459945,0.1460339,0.1460759,0.1461205,0.1461678,0.1462177,0.1462705,0.1463262,0.146385,0.1464471,0.1465126,0.1465816,0.1466542,0.1467303,0.1468099,0.1468932,0.14698,0.1470707,0.1471653,0.1472638,0.1473662,0.1474724,0.1475822,0.1476956,0.1478124,0.1479325,0.1480559,0.1481828,0.1483133,0.1484476,0.1485856,0.1487272,0.1488724,0.1490213,0.1491738,0.1493299,0.1494896,0.1496529,0.1498199,0.1499909,0.1501658,0.1503445,0.1505271,0.1507133,0.1509032,0.1510965,0.1512932,0.1514934,0.151697,0.151904,0.1521141,0.1523276,0.1525441,0.1527635,0.1529856,0.1532103,0.1534373,0.1536665,0.1538979,0.1541312,0.1543665,0.1546036,0.1548425,0.155083,0.155325,0.1555685,0.1558133,0.1560594,0.1563066,0.1565547,0.1568036,0.1570534,0.157304,0.1575553,0.1578074,0.1580604,0.1583142,0.1585688,0.158824,0.15908,0.1593364,0.1595932,0.1598502,0.160107,0.1603635,0.1606193,0.1608739,0.161127,0.1613783,0.1616275,0.1618742,0.1621184,0.1623599,0.1625984,0.1628338,0.1630661,0.163295,0.1635205,0.1637423,0.1639604,0.1641749,0.1643858,0.1645931,0.1647971,0.1649979,0.1651957,0.1653908,0.1655833,0.1657734,0.1659615,0.1661478,0.1663328,0.166517,0.1667013,0.1668863,0.167073,0.1672621,0.1674547,0.1676517,0.167854,0.1680626,0.1682782,0.1685017,0.168734,0.1689755,0.1692271,0.1694892,0.1697623,0.1700469,0.1703434,0.170652,0.1709731,0.1713067,0.171653,0.1720119,0.1723835,0.1727677,0.1731645,0.1735739,0.1739959,0.1744307,0.1748783,0.175339,0.175813,0.1763006,0.1768019,0.1773172,0.1778466,0.1783903,0.1789484,0.1795208,0.1801077,0.1807092,0.1813254,0.1819566,0.182603,0.1832647,0.1839422,0.1846355,0.1853449,0.1860702,0.1868114,0.1875683,0.1883406,0.1891281,0.1899305,0.1907476,0.1915791,0.1924249,0.1932848,0.1941585,0.1950457,0.1959458,0.1968585,0.1977832,0.1987194,0.1996664,0.2006236,0.2015904,0.2025662,0.2035505,0.2045424,0.2055413,0.2065465,0.2075574,0.2085733,0.2095936,0.2106178,0.2116455,0.2126759,0.2137088,0.2147435,0.2157798,0.216817,0.2178547,0.2188922,0.219929,0.2209644,0.2219977,0.2230281,0.2240551,0.2250779,0.2260959,0.2271084,0.2281151,0.2291152,0.2301081,0.2310933,0.2320698,0.2330374,0.2339952,0.2349425,0.2358788,0.2368036,0.2377163,0.2386163,0.2395032,0.2403767,0.2412363,0.2420819,0.2429128,0.2437289,0.2445298,0.2453153,0.246085,0.246839,0.2475768,0.2482984,0.2490038,0.2496928,0.2503654,0.2510214,0.2516609,0.2522839,0.2528903,0.2534806,0.2540548,0.2546131,0.2551559,0.2556836,0.2561967,0.2566954,0.2571801,0.2576508,0.258108,0.2585518,0.2589829,0.2594012,0.2598074,0.2602018,0.2605845,0.2609559,0.2613161,0.2616653,0.2620039,0.262332,0.2626499,0.262958,0.2632568,0.2635466,0.2638278,0.2641008,0.264366,0.2646235,0.2648738,0.2651173,0.2653542,0.2655849,0.2658096,0.2660285,0.2662419,0.2664502,0.2666538,0.2668526,0.2670472,0.2672376,0.267424,0.2676063,0.2677848,0.2679593,0.2681296,0.2682955,0.268457,0.2686137,0.2687659,0.2689132,0.2690557,0.2691932,0.2693258,0.2694535,0.2695762,0.2696938,0.2698059,0.2699126,0.2700137,0.270109,0.2701982,0.2702812,0.2703578,0.2704279,0.2704917,0.2705488,0.2705992,0.2706431,0.2706805,0.2707112,0.2707354,0.2707532,0.2707648,0.2707703,0.27077,0.2707638,0.2707522,0.2707352,0.2707129,0.2706854,0.2706529,0.2706155,0.2705731,0.2705261,0.2704745,0.2704186,0.2703584,0.2702942,0.2702262,0.2701545,0.2700793,0.2700006,0.2699187,0.2698336,0.2697456,0.269655,0.269562,0.2694667,0.2693693,0.2692699,0.2691685,0.2690651,0.2689598,0.2688525,0.2687431,0.2686316,0.2685181,0.2684024,0.2682846,0.2681645,0.268042,0.2679172,0.2677898,0.2676598,0.2675274,0.2673929,0.2672564,0.2671179,0.2669778,0.266836,0.2666927,0.2665477,0.2664011,0.2662527,0.2661024,0.2659502,0.265796,0.2656398,0.2654816,0.2653213,0.2651587,0.264994,0.264827,0.2646576,0.2644859,0.2643118,0.2641355,0.263957,0.2637764,0.2635939,0.2634096,0.2632236,0.2630359,0.2628468,0.2626563,0.2624646,0.2622716,0.2620775,0.2618822,0.2616857,0.2614881,0.2612894,0.2610897,0.2608888,0.2606868,0.2604836,0.2602794,0.2600744,0.2598687,0.2596626,0.2594564,0.2592503,0.2590447,0.2588395,0.2586351,0.2584316,0.2582292,0.2580279,0.2578279,0.2576295,0.2574327,0.2572379,0.2570451,0.2568547,0.2566664,0.2564804,0.2562968,0.2561155,0.2559366,0.25576,0.2555857,0.2554136,0.255244,0.2550768,0.2549122,0.2547504,0.2545918,0.2544364,0.2542844,0.2541363,0.2539918,0.2538511,0.2537142,0.2535808,0.2534508,0.253324,0.2532001,0.2530791,0.2529606,0.2528447,0.2527312,0.2526201,0.2525113,0.2524048,0.2523006,0.2521985,0.2520983,0.2519999,0.2519029,0.2518072,0.2517125,0.2516188,0.2515258,0.2514338,0.2513426,0.2512521,0.2511627,0.2510742,0.2509868,0.2509004,0.2508151,0.2507311,0.2506482,0.2505664,0.2504858,0.2504061,0.2503274,0.2502495,0.2501723,0.2500957,0.2500197,0.2499444,0.2498699,0.2497963,0.2497236,0.249652,0.2495816,0.2495126,0.249445,0.2493791,0.2493149,0.2492526,0.2491921,0.2491335,0.2490768,0.249022,0.2489692,0.248918,0.2488685,0.2488205,0.2487739,0.2487287,0.2486847,0.248642,0.2486005,0.2485602,0.248521,0.2484828,0.2484453,0.2484081,0.248371,0.2483335,0.2482955,0.2482568,0.2482173,0.2481773,0.2481368,0.2480963,0.2480559,0.2480157,0.2479756,0.2479354,0.247895,0.2478541,0.2478121,0.2477686,0.2477233,0.2476761,0.2476267,0.2475753,0.2475216,0.2474656,0.2474072,0.2473464,0.2472831,0.2472172,0.2471485,0.2470769,0.2470023,0.2469246,0.2468438,0.2467598,0.2466723,0.2465812,0.2464864,0.2463879,0.2462855,0.2461792,0.246069,0.2459548,0.2458365,0.245714,0.2455869,0.2454553,0.2453191,0.2451781,0.2450327,0.2448832,0.2447299,0.244573,0.244413,0.2442498,0.2440836,0.2439146,0.2437428,0.2435685,0.2433919,0.2432128,0.2430315,0.2428482,0.242663,0.2424757,0.2422864,0.2420952,0.2419019,0.2417066,0.2415094,0.2413101,0.2411092,0.2409069,0.2407035,0.2404994,0.2402949,0.2400902,0.2398854,0.2396808,0.2394763,0.239272,0.2390682,0.2388647,0.2386618,0.2384596,0.2382582,0.2380578,0.2378586,0.2376608,0.2374642,0.2372688,0.2370746,0.2368812,0.2366887,0.2364968,0.2363054,0.2361142,0.235923,0.2357316,0.23554,0.2353482,0.235156,0.2349636,0.2347708,0.2345778,0.2343843,0.2341903,0.2339957,0.2338005,0.2336046,0.2334079,0.2332105,0.2330125,0.2328143,0.2326165,0.2324193,0.2322233,0.2320284,0.2318349,0.2316431,0.2314532,0.2312653,0.2310794,0.2308957,0.2307142,0.2305351,0.2303583,0.2301839,0.2300114,0.2298407,0.2296717,0.2295041,0.229338,0.2291736,0.2290108,0.2288499,0.2286912,0.2285348,0.2283808,0.228229,0.2280797,0.2279329,0.2277887,0.2276471,0.2275082,0.2273722,0.2272392,0.2271092,0.2269824,0.2268591,0.2267395,0.2266238,0.226512,0.226404,0.2262999,0.2261997,0.2261034,0.226011,0.2259223,0.2258375,0.2257568,0.22568,0.2256074,0.2255389,0.2254747,0.2254149,0.2253596,0.2253091,0.2252636,0.2252233,0.2251886,0.2251595,0.2251363,0.2251192,0.2251084,0.225104,0.2251063,0.2251152,0.2251311,0.225154,0.2251843,0.2252219,0.2252669,0.2253192,0.2253787,0.2254453,0.2255186,0.2255984,0.2256844,0.2257761,0.2258731,0.2259752,0.2260819,0.2261931,0.2263084,0.2264277,0.226551,0.2266783,0.2268095,0.2269447,0.2270839,0.227227,0.2273743,0.2275258,0.2276818,0.2278423,0.2280076,0.2281778,0.2283532,0.2285337,0.2287197,0.2289111,0.2291083,0.2293112,0.2295201,0.229735,0.229956,0.2301832,0.2304164,0.2306556,0.2309008,0.2311517,0.2314083,0.2316703,0.2319376,0.2322099,0.2324872,0.2327692,0.2330559,0.2333473,0.2336435,0.2339445,0.2342504,0.2345613,0.2348772,0.2351979,0.2355234,0.2358532,0.236187,0.2365243,0.2368646,0.2372074,0.2375523,0.2378988,0.2382462,0.2385939,0.2389414,0.2392878,0.2396325,0.2399748,0.2403142,0.2406501,0.240982,0.2413097,0.2416329,0.2419512,0.2422647,0.2425732,0.2428768,0.2431757,0.2434697,0.2437591,0.2440439,0.2443241,0.2445998,0.244871,0.2451378,0.2454001,0.245658,0.2459112,0.2461597,0.2464036,0.2466429,0.2468775,0.2471076,0.2473332,0.2475543,0.2477708,0.2479829,0.2481904,0.2483934,0.248592,0.2487866,0.2489772,0.2491644,0.2493487,0.2495306,0.249711,0.2498904,0.2500696,0.2502493,0.25043,0.250612,0.2507955,0.2509806,0.2511672,0.2513552,0.2515443,0.2517343,0.2519248,0.2521155,0.2523062,0.2524961,0.2526846,0.2528712,0.253055,0.2532355,0.2534122,0.2535844,0.253752,0.2539145,0.254072,0.2542243,0.254371,0.2545122,0.2546474,0.2547765,0.254899,0.2550147,0.2551232,0.2552239,0.2553166,0.2554007,0.2554759,0.2555418,0.255598,0.2556441,0.2556795,0.2557042,0.2557177,0.2557201,0.2557113,0.2556916,0.2556614,0.2556215,0.2555725,0.2555154,0.2554513,0.2553813,0.2553066,0.2552284,0.2551482,0.2550673,0.2549873,0.2549097,0.2548356,0.2547663,0.2547026,0.2546453,0.2545949,0.2545515,0.2545152,0.2544858,0.254463,0.2544464,0.2544356,0.25443,0.2544292,0.254433,0.2544409,0.2544525,0.2544673,0.2544849,0.2545046,0.254526,0.2545487,0.2545726,0.2545975,0.2546235,0.2546505,0.2546787,0.2547082,0.254739,0.2547711,0.2548043,0.2548386,0.2548736,0.2549096,0.2549464,0.254984,0.2550223,0.2550614,0.2551012,0.2551417,0.2551826,0.2552238,0.2552651,0.255306,0.2553465,0.2553858,0.2554235,0.255459,0.2554917,0.2555211,0.2555467,0.2555677,0.2555837,0.2555939,0.2555979,0.2555954,0.255586,0.2555696,0.2555464,0.2555163,0.2554798,0.2554369,0.2553881,0.2553338,0.2552744,0.2552109,0.2551436,0.2550732,0.2550005,0.2549258,0.2548496,0.2547724,0.2546945,0.2546162,0.2545378,0.2544594,0.2543814,0.2543038,0.2542266,0.2541497,0.2540734,0.2539977,0.2539225,0.2538483,0.2537751,0.2537033,0.2536329,0.253564,0.2534963,0.2534296,0.2533635,0.2532978,0.2532322,0.2531666,0.2531006,0.2530345,0.2529682,0.2529016,0.2528346,0.2527673,0.2526996,0.2526314,0.2525626,0.2524929,0.2524222,0.2523503,0.2522773,0.2522032,0.2521281,0.2520518,0.2519746,0.2518964,0.2518171,0.2517367,0.251655,0.2515718,0.2514871,0.2514008,0.2513129,0.2512234,0.2511324,0.2510401,0.2509467,0.2508522,0.2507568,0.2506605,0.2505636,0.2504663,0.2503687,0.2502713,0.2501743,0.2500777,0.2499817,0.2498864,0.2497917,0.2496976,0.2496039,0.2495108,0.2494182,0.2493263,0.2492351,0.2491447,0.2490552,0.2489668,0.2488794,0.2487932,0.2487083,0.2486246,0.248542,0.2484604,0.2483794,0.2482987,0.248218,0.248137,0.2480554,0.247973,0.2478899,0.2478059,0.247721,0.2476352,0.2475483,0.2474604,0.2473713,0.2472809,0.2471892,0.2470962,0.2470017,0.2469059,0.2468088,0.2467104,0.2466109,0.2465102,0.2464085,0.2463058,0.2462021,0.2460973,0.2459912,0.2458835,0.2457741,0.2456626,0.2455489,0.2454328,0.2453143,0.2451933,0.2450698,0.2449436,0.244815,0.2446837,0.2445498,0.2444134,0.2442748,0.2441341,0.2439916,0.2438478,0.2437028,0.2435572,0.243411,0.2432645,0.2431178,0.2429712,0.2428247,0.2426787,0.2425333,0.2423889,0.2422457,0.2421041,0.2419644,0.2418269,0.2416921,0.2415601,0.2414313,0.2413058,0.2411837,0.2410651,0.2409498,0.2408379,0.2407297,0.2406254,0.2405253,0.24043,0.2403399,0.2402555,0.2401772,0.2401051,0.2400396,0.2399805,0.2399281,0.2398822,0.239843,0.2398107,0.2397856,0.2397677,0.2397576,0.2397553,0.2397611,0.2397751,0.2397975,0.2398283,0.2398676,0.2399154,0.2399718,0.2400369,0.2401107,0.2401935,0.2402853,0.2403863,0.2404965,0.240616,0.2407446,0.2408822,0.2410287,0.2411842,0.2413489,0.2415229,0.2417068,0.2419012,0.2421068,0.2423243,0.2425547,0.242799,0.2430584,0.243334,0.2436274,0.24394,0.244273,0.2446278,0.2450057,0.2454075,0.2458341,0.2462862,0.2467643,0.2472688,0.2477999,0.2483579,0.2489426,0.2495542,0.2501926,0.2508577,0.2515496,0.2522686,0.253015,0.2537895,0.254593,0.2554265,0.2562913,0.2571886,0.2581201,0.2590874,0.2600922,0.2611361,0.2622209,0.2633486,0.2645209,0.2657398,0.2670072,0.2683252,0.2696957,0.2711203,0.2726005,0.2741377,0.2757328,0.2773863,0.2790988,0.2808701,0.2826999,0.2845875,0.2865319,0.2885314,0.2905842,0.2926882,0.2948409,0.2970397,0.2992818,0.3015647,0.3038858,0.3062426,0.3086331,0.3110555,0.313508,0.3159893,0.318498,0.3210326,0.3235916,0.3261731,0.3287749,0.3313944,0.3340288,0.3366746,0.3393282,0.3419855,0.3446421,0.3472934,0.3499348,0.3525614,0.3551686,0.3577523,0.3603084,0.3628335,0.3653246,0.3677791,0.370195,0.3725707,0.3749048,0.3771965,0.379445,0.3816501,0.3838116,0.3859296,0.3880039,0.3900346,0.3920215,0.3939642,0.3958623,0.3977154,0.3995232,0.4012854,0.4030017,0.404672,0.4062962,0.4078743,0.4094062,0.4108918,0.4123312,0.4137244,0.4150713,0.4163719,0.4176264,0.4188347,0.4199966,0.4211121,0.4221811,0.4232033,0.4241786,0.4251069,0.4259883,0.426823,0.4276112,0.4283537,0.4290509,0.4297036,0.4303125,0.4308785,0.4314022,0.4318844,0.432326,0.4327278,0.4330904,0.4334147,0.4337012,0.4339504,0.4341629,0.434339,0.4344791,0.4345835,0.4346528,0.4346876,0.4346883,0.4346559,0.4345911,0.4344947,0.4343677,0.4342111,0.4340258,0.433813,0.4335738,0.4333092,0.4330203,0.4327081,0.4323738,0.4320182,0.4316425,0.4312474,0.4308339,0.4304026,0.4299542,0.4294892,0.4290083,0.4285123,0.4280019,0.427478,0.4269413,0.4263927,0.4258327,0.425262,0.4246811,0.4240907,0.4234913,0.4228835,0.4222679,0.421645,0.4210155,0.4203797,0.4197382,0.4190916,0.4184401,0.4177843,0.4171245,0.4164613,0.4157948,0.4151258,0.4144547,0.413782,0.4131083,0.4124338,0.4117591,0.4110844,0.4104097,0.4097354,0.4090614,0.4083879,0.4077151,0.4070428,0.4063712,0.4057004,0.4050303,0.4043609,0.4036924,0.4030248,0.4023581,0.4016926,0.4010283,0.4003654,0.3997038,0.3990437,0.398385,0.3977278,0.3970719,0.3964173,0.3957639,0.3951116,0.3944601,0.3938094,0.3931593,0.3925098,0.3918609,0.3912129,0.390566,0.3899205,0.3892767,0.3886344,0.3879937,0.3873544,0.3867164,0.3860796,0.385444,0.3848097,0.3841769,0.3835456,0.3829159,0.382288,0.3816619,0.3810377,0.3804156,0.3797961,0.3791792,0.3785654,0.377955,0.3773482,0.3767453,0.3761463,0.3755512,0.3749599,0.3743724,0.3737888,0.3732095,0.3726349,0.3720657,0.3715024,0.3709454,0.370395,0.3698513,0.369314,0.3687829,0.368258,0.3677393,0.3672272,0.3667216,0.366223,0.3657314,0.3652469,0.3647696,0.3642998,0.3638378,0.3633839,0.3629386,0.3625023,0.3620754,0.3616582,0.361251,0.3608536,0.3604665,0.3600895,0.3597228,0.3593667,0.3590213,0.358687,0.358364,0.3580526,0.3577529,0.357465,0.3571891,0.3569255,0.356674,0.3564351,0.3562085,0.3559944,0.3557929,0.355604,0.355428,0.3552651,0.3551155,0.3549798,0.354858,0.3547505,0.3546574,0.3545787,0.3545144,0.3544645,0.3544291,0.3544084,0.3544026,0.3544122,0.3544374,0.3544785,0.3545356,0.3546087,0.3546977,0.3548028,0.354924,0.3550615,0.3552154,0.355386,0.3555732,0.355777,0.3559973,0.3562339,0.3564869,0.3567561,0.3570414,0.3573429,0.3576604,0.3579939,0.3583433,0.3587086,0.3590897,0.3594867,0.3598992,0.3603272,0.36077,0.3612275,0.361699,0.3621844,0.3626833,0.3631957,0.3637216,0.3642612,0.3648143,0.3653808,0.3659602,0.3665516,0.3671544,0.367768,0.3683918,0.3690255,0.3696692,0.3703229,0.3709865,0.3716596,0.3723418,0.3730323,0.3737305,0.3744356,0.375147,0.3758641,0.3765863,0.377313,0.3780436,0.3787773,0.3795132,0.3802506,0.3809888,0.3817272,0.3824652,0.3832023,0.3839378,0.3846711,0.3854014,0.3861276,0.3868488,0.3875636,0.3882709,0.3889697,0.3896591,0.3903384,0.3910071,0.3916652,0.3923125,0.3929491,0.3935748,0.3941895,0.394793,0.3953851,0.3959652,0.3965334,0.3970893,0.3976327,0.3981637,0.3986823,0.3991888,0.3996835,0.4001671,0.4006402,0.401103,0.4015558,0.4019988,0.4024325,0.4028572,0.4032733,0.4036814,0.4040822,0.404476,0.404863,0.4052434,0.4056175,0.4059855,0.4063474,0.4067032,0.407053,0.4073968,0.4077345,0.4080657,0.4083904,0.4087083,0.4090195,0.4093242,0.4096226,0.409915,0.4102018,0.4104828,0.4107582,0.4110276,0.4112905,0.4115466,0.4117957,0.4120378,0.412273,0.4125018,0.4127247,0.4129424,0.4131554,0.4133639,0.4135684,0.413769,0.413966,0.4141596,0.4143498,0.4145366,0.4147199,0.4148997,0.4150757,0.4152477,0.4154157,0.4155798,0.4157403,0.4158979,0.4160533,0.4162068,0.4163591,0.4165103,0.416661,0.4168109,0.4169602,0.4171087,0.4172565,0.4174034,0.4175492,0.4176933,0.4178354,0.4179751,0.4181122,0.4182468,0.4183789,0.4185089,0.4186368,0.4187625,0.4188857,0.4190058,0.4191225,0.4192354,0.419344,0.4194487,0.4195492,0.4196454,0.4197373,0.4198245,0.4199068,0.4199843,0.4200571,0.4201255,0.4201897,0.4202495,0.4203048,0.4203552,0.4204004,0.4204404,0.420475,0.4205048,0.4205301,0.4205514,0.4205687,0.4205822,0.4205918,0.4205968,0.4205967,0.4205912,0.42058,0.420563,0.4205403,0.4205119,0.4204778,0.420438,0.4203923,0.4203407,0.4202833,0.4202204,0.4201525,0.4200797,0.4200023,0.4199203,0.4198338,0.4197427,0.419647,0.4195467,0.4194422,0.419334,0.4192225,0.4191084,0.4189918,0.418873,0.418752,0.4186287,0.418503,0.4183748,0.4182441,0.4181111,0.4179762,0.4178396,0.4177017,0.4175627,0.4174227,0.417282,0.4171405,0.4169982,0.4168552,0.4167118,0.4165682,0.4164243,0.4162803,0.4161362,0.4159919,0.4158473,0.4157021,0.415556,0.4154089,0.4152604,0.4151103,0.4149584,0.4148042,0.4146471,0.4144867,0.4143223,0.4141535,0.4139797,0.4138008,0.4136171,0.4134286,0.413236,0.4130401,0.4128413,0.4126397,0.4124353,0.4122277,0.4120166,0.4118021,0.4115843,0.4113639,0.4111415,0.4109182,0.4106949,0.4104728,0.4102526,0.4100349,0.40982,0.409608,0.409399,0.4091924,0.408988,0.4087853,0.4085842,0.4083845,0.4081864,0.4079901,0.4077955,0.4076023,0.4074103,0.4072188,0.4070272,0.4068352,0.4066427,0.40645,0.4062577,0.406066,0.4058751,0.4056851,0.4054953,0.405305,0.4051138,0.4049211,0.4047267,0.4045304,0.4043321,0.4041317,0.403929,0.4037236,0.4035147,0.4033013,0.4030828,0.4028588,0.4026294,0.4023951,0.4021566,0.401915,0.4016714,0.4014264,0.4011803,0.4009332,0.4006852,0.400436,0.4001853,0.3999327,0.3996776,0.3994199,0.3991592,0.3988958,0.3986302,0.398363,0.3980946,0.397825,0.3975542,0.3972818,0.3970075,0.3967312,0.3964529,0.3961731,0.3958926,0.3956122,0.3953327,0.3950543,0.394777,0.3945006,0.394225,0.3939499,0.393675,0.3934007,0.3931272,0.3928548,0.3925835,0.3923135,0.3920446,0.3917771,0.3915114,0.391248,0.3909871,0.3907291,0.3904743,0.3902225,0.3899735,0.3897271,0.3894832,0.3892418,0.3890031,0.3887677,0.388536,0.3883085,0.3880855,0.3878674,0.3876545,0.3874471,0.3872453,0.387049,0.386858,0.3866718,0.3864901,0.3863125,0.3861386,0.3859685,0.3858024,0.3856407,0.3854836,0.3853314,0.3851838,0.3850407,0.3849015,0.3847658,0.3846332,0.3845039,0.3843778,0.3842551,0.3841363,0.3840213,0.3839104,0.3838037,0.3837014,0.3836035,0.3835103,0.3834223,0.38334,0.3832636,0.3831937,0.3831311,0.3830768,0.3830315,0.3829956,0.3829694,0.3829528,0.3829458,0.3829482,0.3829598,0.3829807,0.3830113,0.3830523,0.383104,0.3831669,0.3832417,0.3833291,0.3834299,0.383545,0.3836755,0.3838222,0.3839855,0.3841661,0.384364,0.3845801,0.3848146,0.3850686,0.385343,0.3856383,0.3859552,0.3862942,0.3866554,0.3870392,0.3874458,0.3878751,0.3883272,0.3888022,0.3893002,0.389821,0.3903649,0.3909317,0.3915217,0.3921349,0.3927715,0.3934315,0.3941141,0.3948191,0.3955453,0.3962916,0.3970562,0.3978378,0.3986351,0.3994475,0.4002741,0.4011144,0.4019684,0.402836,0.4037167,0.4046098,0.4055139,0.4064277,0.4073492,0.4082767,0.4092084,0.4101429,0.411079,0.4120153,0.4129505,0.4138835,0.4148134,0.4157395,0.4166613,0.4175784,0.4184906,0.4193977,0.4202992,0.4211946,0.4220832,0.4229645,0.4238379,0.4247029,0.4255595,0.4264075,0.4272476,0.42808,0.4289052,0.4297239,0.4305366,0.4313441,0.4321471,0.4329461,0.4337417,0.4345339,0.4353226,0.436107,0.4368864,0.43766,0.4384274,0.4391882,0.4399422,0.4406894,0.44143,0.4421633,0.4428889,0.4436061,0.4443147,0.4450147,0.4457057,0.4463875,0.447059,0.4477186,0.4483644,0.4489946,0.4496081,0.4502042,0.4507827,0.4513432,0.4518851,0.4524077,0.4529101,0.453391,0.4538491,0.4542836,0.4546944,0.4550823,0.4554489,0.4557964,0.4561263,0.4564401,0.4567385,0.4570219,0.4572904,0.4575441,0.4577834,0.4580087,0.4582208,0.4584207,0.4586098,0.4587902,0.4589638,0.459133,0.4592998,0.4594663,0.4596343,0.4598052,0.4599802,0.4601607,0.4603481,0.4605436,0.4607479,0.4609615,0.4611843,0.4614163,0.4616576,0.4619089,0.462171,0.4624453,0.462733,0.4630351,0.4633522,0.4636846,0.4640321,0.4643945,0.464772,0.4651646,0.4655722,0.4659943,0.4664293,0.4668749,0.4673285,0.4677871,0.4682485,0.4687115,0.4691759,0.469642,0.4701109,0.4705833,0.47106,0.4715407,0.4720246,0.4725106,0.4729975,0.473484,0.4739689,0.4744509,0.4749283,0.4753993,0.4758615,0.4763124,0.4767494,0.47717,0.4775722,0.4779536,0.4783121,0.4786454,0.4789507,0.4792254,0.4794671,0.4796743,0.4798465,0.4799842,0.480089,0.4801626,0.4802073,0.4802258,0.4802212,0.4801967,0.4801571,0.480107,0.4800514,0.479995,0.4799418,0.4798937,0.4798521,0.4798169,0.4797871,0.4797621,0.479742,0.4797274,0.4797198,0.4797209,0.4797324,0.4797557,0.4797913,0.4798387,0.4798963,0.4799622,0.4800341,0.4801092,0.4801861,0.4802635,0.4803408,0.4804182,0.4804958,0.4805738,0.4806523,0.4807314,0.4808106,0.4808892,0.4809666,0.4810424,0.4811169,0.4811905,0.4812635,0.4813368,0.4814107,0.4814859,0.4815634,0.4816445,0.48173,0.4818204,0.4819162,0.4820167,0.4821208,0.4822271,0.4823348,0.4824427,0.4825502,0.4826574,0.4827646,0.4828719,0.4829787,0.4830842,0.4831874,0.4832871,0.4833821,0.4834711,0.483552,0.4836232,0.4836827,0.4837286,0.4837584,0.4837698,0.4837607,0.4837296,0.4836761,0.4836015,0.483507,0.4833947,0.4832661,0.4831219,0.4829617,0.4827856,0.4825936,0.4823866,0.4821675,0.4819397,0.4817069,0.4814726,0.4812398,0.4810108,0.4807871,0.4805695,0.4803589,0.4801559,0.4799608,0.4797747,0.4795978,0.4794303,0.4792724,0.479124,0.478985,0.478854,0.4787306,0.4786139,0.4785034,0.4783981,0.4782975,0.4782019,0.478111,0.4780239,0.4779393,0.4778559,0.4777721,0.4776881,0.4776042,0.4775205,0.4774384,0.4773593,0.4772843,0.4772135,0.4771473,0.4770858,0.4770285,0.4769759,0.4769289,0.4768884,0.4768554,0.4768299,0.4768117,0.4768009,0.4767971,0.4768003,0.4768103,0.4768277,0.4768524,0.4768848,0.4769247,0.4769714,0.4770246,0.4770839,0.4771489,0.4772191,0.4772935,0.4773712,0.4774516,0.4775344,0.4776194,0.4777066,0.4777955,0.4778856,0.4779758,0.4780657,0.4781553,0.478245,0.4783361,0.4784296,0.4785262,0.4786267,0.4787316,0.4788407,0.478954,0.4790714,0.4791931,0.4793196,0.479451,0.4795874,0.4797292,0.4798768,0.4800306,0.4801908,0.4803573,0.4805293,0.480707,0.4808913,0.4810834,0.4812852,0.4814981,0.4817235,0.4819618,0.4822127,0.4824758,0.4827508,0.4830373,0.4833348,0.4836425,0.4839596,0.4842844,0.4846157,0.484952,0.4852918,0.4856341,0.4859791,0.4863272,0.4866793,0.4870374,0.4874029,0.4877781,0.4881643,0.4885614,0.4889696,0.4893873,0.4898131,0.4902456,0.4906841,0.4911281,0.4915777,0.4920343,0.4924982,0.4929706,0.4934514,0.4939404,0.4944369,0.4949404,0.4954507,0.4959691,0.4964964,0.4970338,0.4975822,0.4981418,0.4987127,0.4992957,0.4998901,0.5004948,0.5011089,0.5017318,0.5023636,0.503005,0.503656,0.5043173,0.5049883,0.5056678,0.5063536,0.5070445,0.5077393,0.5084382,0.5091422,0.5098528,0.5105714,0.5112991,0.5120355,0.5127801,0.5135324,0.5142925,0.5150614,0.5158408,0.5166314,0.5174334,0.5182457,0.5190664,0.5198933,0.5207245,0.5215582,0.5223932,0.5232291,0.5240667,0.5249067,0.52575,0.526597,0.5274469,0.528299,0.5291529,0.5300083,0.5308658,0.5317261,0.5325893,0.5334553,0.5343235,0.5351925,0.536062,0.5369313,0.5378006,0.5386704,0.5395402,0.5404113,0.5412849,0.5421627,0.5430456,0.5439335,0.5448263,0.5457224,0.54662,0.5475177,0.5484143,0.5493093,0.5502029,0.5510955,0.5519877,0.5528799,0.5537729,0.5546666,0.5555601,0.5564517,0.55734,0.5582233,0.5591011,0.5599741,0.5608428,0.5617084,0.5625721,0.5634347,0.5642952,0.5651522,0.5660028,0.5668441,0.5676728,0.5684863,0.5692832,0.5700631,0.5708272,0.5715773,0.5723167,0.5730487,0.573776,0.5745,0.5752213,0.5759392,0.5766513,0.5773549,0.5780476,0.5787274,0.5793937,0.5800477,0.5806915,0.5813271,0.5819567,0.5825814,0.5831997,0.5838093,0.5844064,0.5849888,0.5855546,0.586104,0.5866382,0.5871598,0.5876709,0.5881735,0.5886688,0.5891564,0.5896355,0.5901037,0.5905582,0.5909967,0.5914175,0.5918204,0.5922059,0.5925741,0.5929248,0.5932577,0.5935717,0.5938651,0.594137,0.5943871,0.5946155,0.5948234,0.5950121,0.5951828,0.5953375,0.595477,0.5956015,0.595711,0.5958047,0.5958813,0.5959401,0.5959803,0.596001,0.5960017,0.5959825,0.5959433,0.5958841,0.5958059,0.5957047
F24-3583,CIAT-BR-02-1794,Urochloa interespecific,Grass,97.05,15.02,84.98,9.39,21.84,55.76,38.62,76.6,157.75,63.97,4.06,13.79,14.51,22.88,35.77,116.14,0.8702137,0.8705893,0.8709052,0.8711666,0.8713796,0.8715488,0.8716801,0.8717749,0.8718326,0.8718556,0.8718419,0.8717916,0.8717026,0.8715748,0.8714089,0.8712069,0.8709692,0.8706992,0.8703988,0.8700726,0.869721,0.8693463,0.8689514,0.8685365,0.8681031,0.8676494,0.8671796,0.8666916,0.8661854,0.8656628,0.8651276,0.8645773,0.8640143,0.8634399,0.862859,0.8622702,0.8616735,0.861069,0.8604568,0.8598375,0.8592094,0.8585699,0.857917,0.857251,0.8565701,0.8558736,0.8551627,0.8544377,0.8536974,0.8529441,0.8521797,0.8514046,0.8506216,0.8498328,0.8490406,0.8482457,0.84745,0.846653,0.8458567,0.8450635,0.8442714,0.843483,0.8426993,0.8419188,0.8411457,0.8403774,0.8396174,0.8388677,0.8381264,0.8373941,0.8366714,0.8359576,0.8352523,0.8345546,0.8338638,0.833178,0.8324938,0.8318105,0.8311308,0.8304579,0.8297927,0.8291364,0.8284895,0.8278564,0.8272396,0.826641,0.8260614,0.8255014,0.8249599,0.8244349,0.8239264,0.8234352,0.8229603,0.8225029,0.8220638,0.8216421,0.8212366,0.8208461,0.8204727,0.8201164,0.8197755,0.8194523,0.8191482,0.8188654,0.818602,0.818356,0.8181303,0.8179233,0.8177326,0.8175592,0.8174008,0.8172524,0.8171131,0.816985,0.8168641,0.8167463,0.8166271,0.8165078,0.8163875,0.8162655,0.8161434,0.8160195,0.8158892,0.8157516,0.815605,0.8154478,0.8152805,0.8151007,0.8149059,0.8146957,0.8144684,0.8142238,0.8139609,0.8136791,0.8133791,0.8130624,0.8127294,0.8123781,0.8120092,0.811624,0.8112237,0.8108096,0.8103819,0.8099407,0.8094886,0.8090267,0.8085539,0.8080693,0.8075715,0.8070596,0.8065334,0.8059942,0.8054422,0.8048795,0.8043098,0.8037345,0.8031532,0.802564,0.8019667,0.8013641,0.800757,0.8001494,0.7995417,0.7989335,0.7983243,0.797713,0.797098,0.7964777,0.7958516,0.7952186,0.7945759,0.7939219,0.7932533,0.792565,0.7918547,0.7911221,0.790368,0.7895902,0.7887861,0.7879541,0.7870911,0.7861953,0.7852643,0.7842957,0.7832872,0.7822359,0.7811415,0.7800003,0.7788087,0.7775654,0.7762674,0.7749144,0.7735066,0.7720425,0.770519,0.7689328,0.7672806,0.7655606,0.763774,0.7619206,0.7599999,0.7580116,0.7559555,0.7538291,0.7516354,0.7493747,0.7470481,0.7446566,0.7422007,0.7396815,0.7371016,0.7344614,0.7317625,0.7290062,0.7261947,0.7233297,0.7204133,0.717447,0.7144313,0.7113709,0.7082694,0.7051295,0.7019541,0.6987466,0.6955103,0.6922461,0.6889594,0.6856558,0.6823396,0.6790169,0.6756915,0.6723678,0.6690509,0.6657466,0.6624593,0.6591946,0.6559587,0.6527551,0.6495885,0.6464643,0.643387,0.6403623,0.6373949,0.6344895,0.6316511,0.6288837,0.6261917,0.6235796,0.6210511,0.6186092,0.6162574,0.6139983,0.6118345,0.6097676,0.6077988,0.6059277,0.6041553,0.6024815,0.6009061,0.5994275,0.5980439,0.5967526,0.595551,0.5944349,0.5934013,0.5924451,0.591561,0.5907441,0.5899899,0.5892914,0.5886419,0.5880349,0.5874647,0.5869242,0.5864072,0.5859063,0.5854161,0.5849307,0.5844433,0.5839493,0.5834417,0.5829172,0.5823721,0.5818031,0.5812054,0.5805778,0.5799192,0.5792288,0.5785061,0.5777513,0.5769637,0.5761459,0.5753,0.5744291,0.5735354,0.5726228,0.5716949,0.5707547,0.5698072,0.5688571,0.567907,0.5669621,0.5660275,0.5651073,0.5642053,0.5633256,0.5624705,0.5616436,0.5608486,0.5600881,0.5593664,0.5586848,0.5580437,0.5574453,0.5568902,0.5563823,0.5559203,0.5555044,0.5551339,0.5548092,0.5545295,0.5542947,0.5541036,0.5539551,0.5538484,0.5537816,0.5537539,0.5537636,0.5538095,0.5538892,0.5540016,0.5541447,0.5543167,0.5545161,0.5547406,0.554989,0.5552582,0.5555467,0.5558534,0.5561758,0.5565133,0.5568633,0.5572258,0.5575992,0.5579815,0.5583712,0.5587674,0.5591688,0.5595748,0.5599838,0.5603955,0.5608089,0.5612228,0.5616357,0.562049,0.5624618,0.5628744,0.5632868,0.5636984,0.5641096,0.5645204,0.5649309,0.5653411,0.5657514,0.5661618,0.5665703,0.5669781,0.5673864,0.5677966,0.5682099,0.5686272,0.5690488,0.5694759,0.5699088,0.5703471,0.5707902,0.5712391,0.5716944,0.5721565,0.5726275,0.5731083,0.5735995,0.5741017,0.5746161,0.5751436,0.5756847,0.5762405,0.5768118,0.577399,0.578003,0.5786224,0.5792574,0.5799103,0.5805821,0.5812739,0.5819873,0.5827227,0.5834787,0.5842544,0.5850499,0.5858649,0.5866989,0.5875509,0.5884203,0.5893059,0.5902066,0.5911208,0.5920471,0.5929832,0.5939277,0.594878,0.5958313,0.5967855,0.5977389,0.5986881,0.5996311,0.6005656,0.6014875,0.6023943,0.6032831,0.6041511,0.6049967,0.605817,0.6066101,0.6073737,0.6081061,0.6088058,0.6094712,0.6101004,0.6106932,0.6112485,0.6117656,0.6122441,0.6126837,0.6130849,0.6134483,0.6137737,0.6140622,0.6143152,0.6145339,0.6147186,0.6148715,0.6149929,0.6150854,0.6151507,0.6151919,0.6152117,0.6152136,0.6152,0.6151744,0.6151394,0.6150973,0.6150526,0.6150087,0.6149685,0.6149371,0.6149182,0.6149163,0.6149348,0.6149757,0.615045,0.6151471,0.6152859,0.6154656,0.6156887,0.6159595,0.6162818,0.6166581,0.6170912,0.6175865,0.6181443,0.6187666,0.6194573,0.6202165,0.6210455,0.6219461,0.6229166,0.623957,0.6250684,0.6262486,0.6274958,0.6288093,0.630187,0.6316268,0.6331261,0.6346803,0.6362877,0.6379458,0.639651,0.641399,0.6431877,0.6450126,0.6468719,0.6487628,0.6506819,0.6526284,0.6546007,0.6565977,0.6586188,0.6606641,0.6627342,0.6648296,0.666952,0.6691033,0.6712851,0.6735,0.6757518,0.6780421,0.6803744,0.6827504,0.6851721,0.687642,0.690161,0.692731,0.695352,0.6980234,0.7007448,0.7035142,0.7063283,0.7091835,0.7120748,0.7149966,0.7179424,0.7209044,0.7238739,0.7268428,0.7298001,0.7327343,0.7356334,0.7384854,0.7412785,0.7439986,0.7466323,0.7491658,0.7515854,0.7538779,0.7560304,0.7580297,0.7598631,0.7615189,0.7629857,0.7642528,0.7653108,0.7661504,0.7667647,0.7671474,0.7672909,0.7671893,0.7668382,0.7662347,0.7653756,0.7642584,0.7628833,0.7612485,0.7593546,0.7572021,0.7547926,0.7521281,0.7492105,0.7460432,0.7426303,0.7389758,0.7350845,0.7309616,0.7266128,0.7220446,0.7172648,0.71228,0.7070985,0.7017285,0.6961794,0.6904609,0.6845831,0.6785564,0.6723914,0.6660992,0.6596916,0.6531793,0.6465736,0.6398855,0.6331258,0.6263056,0.619436,0.6125267,0.6055876,0.5986277,0.5916565,0.5846823,0.5777134,0.5707573,0.563822,0.556913,0.5500367,0.5431985,0.5364034,0.5296566,0.522962,0.5163242,0.5097465,0.5032326,0.4967856,0.4904088,0.4841046,0.4778761,0.4717252,0.4656547,0.4596671,0.4537643,0.4479488,0.4422228,0.4365878,0.4310457,0.425598,0.4202464,0.4149924,0.4098371,0.4047814,0.3998266,0.3949738,0.3902234,0.385576,0.381032,0.3765913,0.3722533,0.3680185,0.3638863,0.3598565,0.3559279,0.3521,0.3483716,0.3447433,0.3412116,0.3377751,0.334432,0.3311806,0.3280191,0.3249453,0.3219575,0.319053,0.3162303,0.3134868,0.3108205,0.3082292,0.3057105,0.3032624,0.3008823,0.2985684,0.2963185,0.2941307,0.2920037,0.2899345,0.2879216,0.285963,0.2840574,0.2822031,0.2803982,0.278642,0.2769324,0.2752683,0.2736486,0.2720723,0.2705381,0.2690451,0.2675924,0.266179,0.2648043,0.2634671,0.2621666,0.2609021,0.2596729,0.2584776,0.2573164,0.2561885,0.2550933,0.25403,0.2529985,0.2519977,0.2510276,0.2500878,0.2491769,0.2482948,0.2474401,0.2466129,0.2458121,0.245037,0.244287,0.2435616,0.2428602,0.2421821,0.2415263,0.2408921,0.2402788,0.2396855,0.2391116,0.2385562,0.2380185,0.2374975,0.2369921,0.2365016,0.2360246,0.2355603,0.2351076,0.2346655,0.234233,0.2338092,0.2333933,0.2329838,0.2325796,0.23218,0.2317833,0.2313892,0.230996,0.2306033,0.23021,0.2298152,0.2294178,0.2290169,0.2286119,0.2282021,0.2277873,0.2273672,0.226941,0.2265086,0.2260705,0.2256266,0.2251772,0.2247218,0.224261,0.223795,0.2233241,0.2228486,0.2223688,0.2218857,0.2213996,0.2209115,0.2204219,0.2199314,0.2194409,0.2189512,0.2184631,0.2179773,0.2174942,0.2170146,0.2165393,0.2160688,0.215604,0.2151444,0.2146911,0.214244,0.213804,0.2133714,0.2129464,0.2125293,0.21212,0.2117189,0.2113258,0.2109409,0.2105641,0.2101954,0.2098349,0.2094824,0.2091377,0.2088009,0.2084717,0.20815,0.2078357,0.2075287,0.2072288,0.2069352,0.2066483,0.2063675,0.2060921,0.2058216,0.2055563,0.2052958,0.2050396,0.2047872,0.2045389,0.2042941,0.2040522,0.2038131,0.2035768,0.2033431,0.2031119,0.2028828,0.2026555,0.2024302,0.2022067,0.2019844,0.2017635,0.2015439,0.2013248,0.2011063,0.200889,0.2006719,0.2004556,0.2002398,0.2000246,0.1998097,0.199595,0.1993806,0.1991662,0.198952,0.1987378,0.1985238,0.1983098,0.1980958,0.1978818,0.1976678,0.1974541,0.1972403,0.1970268,0.196814,0.196602,0.1963913,0.1961819,0.1959741,0.1957681,0.1955639,0.1953617,0.1951618,0.194964,0.1947681,0.1945744,0.1943829,0.1941936,0.1940064,0.1938212,0.1936383,0.1934574,0.1932788,0.1931024,0.1929279,0.1927551,0.1925845,0.1924158,0.1922488,0.1920835,0.1919199,0.1917579,0.1915969,0.191437,0.1912785,0.1911213,0.1909648,0.1908092,0.1906547,0.1905005,0.1903469,0.1901942,0.1900415,0.1898891,0.1897376,0.1895865,0.1894362,0.1892866,0.1891374,0.1889889,0.1888415,0.1886946,0.1885483,0.1884024,0.1882571,0.1881123,0.1879684,0.1878252,0.1876824,0.18754,0.1873976,0.1872548,0.1871124,0.18697,0.1868282,0.1866871,0.1865467,0.1864069,0.1862679,0.18613,0.1859926,0.1858561,0.1857201,0.1855848,0.1854503,0.1853165,0.1851833,0.1850509,0.1849194,0.1847885,0.1846584,0.184529,0.1844007,0.1842742,0.1841484,0.1840235,0.1838991,0.1837753,0.1836523,0.1835299,0.1834083,0.1832875,0.1831679,0.1830491,0.1829313,0.1828142,0.1826975,0.1825814,0.1824662,0.1823515,0.1822376,0.1821245,0.1820123,0.1819009,0.1817906,0.1816818,0.1815739,0.1814668,0.1813605,0.1812553,0.1811506,0.1810468,0.1809435,0.180841,0.1807389,0.1806367,0.1805341,0.1804314,0.1803287,0.1802264,0.180125,0.1800243,0.1799242,0.1798248,0.179726,0.1796276,0.1795296,0.1794322,0.1793354,0.1792406,0.179146,0.1790524,0.1789603,0.1788691,0.1787784,0.1786882,0.1785976,0.1785075,0.1784169,0.1783263,0.1782353,0.1781448,0.1780546,0.1779646,0.1778751,0.1777864,0.1776985,0.1776111,0.1775243,0.1774378,0.1773522,0.1772672,0.1771829,0.1770992,0.177016,0.1769342,0.1768539,0.1767733,0.1766928,0.1766129,0.1765336,0.1764547,0.1763764,0.1762986,0.1762208,0.1761437,0.1760671,0.175991,0.1759152,0.1758395,0.1757642,0.1756892,0.1756146,0.1755407,0.1754674,0.1753945,0.1753221,0.1752499,0.1751779,0.1751069,0.1750361,0.1749655,0.1748952,0.1748249,0.174755,0.1746852,0.1746156,0.1745461,0.1744768,0.1744079,0.1743391,0.1742703,0.1742019,0.1741337,0.1740659,0.1739988,0.1739326,0.1738667,0.1738011,0.1737362,0.1736714,0.173607,0.1735425,0.1734782,0.1734139,0.1733494,0.1732847,0.1732197,0.1731544,0.1730889,0.1730231,0.1729572,0.1728912,0.1728249,0.1727582,0.1726913,0.1726241,0.1725563,0.1724885,0.1724205,0.1723521,0.1722834,0.1722148,0.1721459,0.1720767,0.1720071,0.1719372,0.1718673,0.1717969,0.1717264,0.1716557,0.1715849,0.171514,0.171443,0.1713719,0.1713007,0.1712295,0.1711583,0.1710874,0.1710165,0.1709455,0.1708743,0.170803,0.1707315,0.1706599,0.1705883,0.1705162,0.1704434,0.1703705,0.1702977,0.170225,0.1701527,0.1700804,0.1700082,0.1699362,0.1698644,0.1697926,0.1697212,0.1696499,0.1695789,0.1695079,0.1694371,0.1693664,0.1692956,0.1692249,0.1691542,0.1690838,0.1690137,0.1689441,0.1688747,0.1688057,0.1687371,0.168669,0.1686013,0.1685348,0.168469,0.1684037,0.168339,0.168275,0.1682116,0.168149,0.1680869,0.1680255,0.167965,0.1679054,0.1678468,0.1677889,0.1677321,0.1676762,0.1676212,0.1675671,0.1675147,0.1674633,0.1674128,0.1673632,0.1673146,0.167267,0.1672202,0.1671742,0.1671292,0.167085,0.1670417,0.1669994,0.1669577,0.1669171,0.1668763,0.1668363,0.1667971,0.1667587,0.1667209,0.1666839,0.1666476,0.1666121,0.1665776,0.1665438,0.1665105,0.166478,0.1664464,0.1664154,0.1663849,0.1663555,0.1663271,0.1662995,0.1662725,0.1662462,0.1662205,0.1661953,0.1661709,0.1661469,0.1661233,0.1661001,0.1660772,0.1660541,0.166031,0.1660081,0.1659855,0.1659628,0.1659399,0.1659169,0.1658937,0.1658705,0.1658465,0.1658224,0.165798,0.1657728,0.165747,0.1657203,0.1656932,0.1656655,0.1656377,0.1656097,0.1655812,0.1655519,0.165522,0.1654911,0.1654595,0.1654271,0.1653939,0.16536,0.1653252,0.1652896,0.1652532,0.1652158,0.1651775,0.1651386,0.1650988,0.165058,0.1650167,0.1649745,0.1649316,0.1648879,0.1648436,0.1647987,0.1647536,0.1647079,0.1646615,0.1646144,0.1645664,0.1645176,0.164468,0.1644177,0.1643669,0.164316,0.1642647,0.1642128,0.1641604,0.1641075,0.1640541,0.1640003,0.163946,0.1638912,0.163836,0.1637804,0.1637246,0.1636686,0.1636122,0.1635555,0.1634984,0.1634412,0.1633837,0.1633258,0.163268,0.1632099,0.1631518,0.1630934,0.1630345,0.1629757,0.1629163,0.1628567,0.1627973,0.1627377,0.1626781,0.1626182,0.1625583,0.1624983,0.1624383,0.1623781,0.1623178,0.1622575,0.162197,0.1621362,0.1620749,0.1620137,0.1619521,0.1618903,0.1618285,0.1617663,0.1617041,0.1616417,0.1615786,0.1615153,0.1614519,0.1613884,0.1613248,0.161261,0.1611973,0.1611333,0.1610694,0.1610054,0.1609412,0.1608769,0.1608128,0.1607485,0.1606841,0.1606196,0.1605551,0.1604911,0.1604268,0.1603625,0.1602984,0.1602341,0.1601699,0.1601057,0.1600417,0.1599781,0.1599146,0.1598514,0.1597885,0.1597257,0.1596631,0.1596,0.1595369,0.159474,0.1594111,0.1593485,0.1592861,0.1592235,0.159161,0.1590987,0.1590361,0.1589735,0.1589114,0.1588496,0.1587879,0.1587265,0.1586654,0.1586045,0.1585437,0.1584829,0.1584222,0.1583617,0.1583012,0.1582409,0.1581821,0.158124,0.158066,0.1580084,0.1579508,0.1578935,0.1578365,0.1577794,0.1577225,0.1576656,0.1576088,0.1575519,0.1574951,0.1574382,0.1573812,0.1573242,0.1572671,0.15721,0.157153,0.1570963,0.1570392,0.1569822,0.1569252,0.1568681,0.1568108,0.1567534,0.1566959,0.1566384,0.1565805,0.1565225,0.1564645,0.1564064,0.1563482,0.1562899,0.1562315,0.1561731,0.1561141,0.156055,0.1559957,0.1559364,0.1558771,0.1558177,0.1557582,0.1556988,0.1556394,0.1555799,0.1555206,0.1554613,0.1554021,0.1553431,0.1552839,0.1552251,0.1551663,0.1551079,0.1550494,0.1549906,0.1549326,0.1548753,0.1548184,0.154762,0.154707,0.1546525,0.1545988,0.1545458,0.1544932,0.1544409,0.154389,0.1543376,0.1542867,0.1542362,0.1541862,0.1541364,0.1540869,0.1540372,0.1539868,0.1539359,0.1538855,0.1538359,0.1537861,0.1537362,0.1536857,0.153635,0.1535835,0.1535312,0.1534778,0.1534234,0.1533674,0.1533104,0.1532515,0.1531909,0.1531284,0.1530643,0.1529987,0.1529304,0.1528608,0.1527889,0.1527155,0.1526405,0.1525642,0.1524869,0.1524085,0.1523295,0.1522501,0.1521704,0.1520905,0.1520109,0.1519315,0.1518529,0.151775,0.1528524,0.1528007,0.1527503,0.1527012,0.1526531,0.1526059,0.1525593,0.1525132,0.1524678,0.1524232,0.1523797,0.1523376,0.152297,0.1522579,0.1522203,0.152184,0.1521488,0.1521145,0.152081,0.152048,0.1520153,0.1519828,0.1519503,0.1519179,0.1518857,0.151854,0.1518231,0.1517934,0.1517651,0.1517384,0.1517135,0.1516904,0.151669,0.1516491,0.1516306,0.1516134,0.1515973,0.1515824,0.1515687,0.1515563,0.1515454,0.1515361,0.1515285,0.1515228,0.1515191,0.1515175,0.1515179,0.1515204,0.151525,0.1515316,0.1515404,0.1515516,0.1515652,0.1515815,0.1516007,0.151623,0.1516484,0.1516769,0.1517084,0.1517427,0.1517797,0.1518191,0.1518608,0.1519047,0.1519508,0.1519991,0.1520495,0.1521021,0.1521567,0.1522133,0.1522717,0.1523317,0.1523931,0.1524556,0.1525194,0.1525843,0.1526503,0.1527175,0.152786,0.1528559,0.1529272,0.1530001,0.1530745,0.1531504,0.1532281,0.1533076,0.1533888,0.1534719,0.1535569,0.1536439,0.1537326,0.153823,0.1539152,0.1540092,0.1541048,0.1542021,0.1543012,0.1544025,0.1545061,0.1546121,0.1547205,0.1548312,0.1549442,0.1550593,0.1551763,0.155295,0.155415,0.1555362,0.1556582,0.1557809,0.1559041,0.1560277,0.1561518,0.1562762,0.1564007,0.1565255,0.1566506,0.1567758,0.1569011,0.1570262,0.157151,0.157275,0.1573981,0.1575199,0.1576399,0.157758,0.1578739,0.1579874,0.1580982,0.1582063,0.1583118,0.1584147,0.1585154,0.1586141,0.158711,0.1588064,0.1589005,0.1589935,0.1590854,0.1591765,0.1592667,0.159356,0.1594447,0.1595327,0.1596202,0.1597073,0.1597942,0.159881,0.1599679,0.1600552,0.160143,0.1602316,0.1603211,0.1604116,0.1605031,0.1605957,0.1606891,0.1607832,0.1608776,0.1609722,0.1610667,0.1611609,0.1612546,0.1613474,0.1614392,0.1615297,0.1616186,0.1617055,0.1617902,0.1618726,0.1619524,0.1620296,0.1621041,0.1621756,0.1622441,0.1623094,0.1623713,0.1624297,0.1624846,0.1625359,0.1625835,0.1626275,0.1626681,0.1627055,0.1627401,0.162772,0.162801,0.1628272,0.1628507,0.1628715,0.1628894,0.1629044,0.1629167,0.1629267,0.1629343,0.1629396,0.1629429,0.1629444,0.1629441,0.1629423,0.1629388,0.162934,0.1629277,0.1629199,0.1629105,0.1628995,0.1628866,0.1628718,0.1628549,0.1628358,0.1628143,0.1627906,0.1627645,0.1627359,0.1627045,0.1626702,0.1626327,0.1625915,0.1625466,0.1624977,0.1624448,0.1623879,0.162327,0.1622621,0.1621933,0.1621208,0.1620447,0.1619648,0.161881,0.1617934,0.161702,0.1616069,0.161508,0.1614054,0.1612993,0.1611897,0.1610768,0.1609607,0.1608417,0.16072,0.1605959,0.1604698,0.160342,0.1602128,0.1600827,0.1599517,0.1598202,0.1596883,0.1595563,0.1594243,0.1592926,0.1591613,0.1590303,0.1588996,0.1587693,0.1586394,0.15851,0.158381,0.1582525,0.1581246,0.1579974,0.1578711,0.1577457,0.1576213,0.1574981,0.157376,0.157255,0.157135,0.1570159,0.1568977,0.1567802,0.1566636,0.1565478,0.1564332,0.1563198,0.1562074,0.1560963,0.1559864,0.1558775,0.1557695,0.1556623,0.1555559,0.1554502,0.1553455,0.1552418,0.1551391,0.1550377,0.1549374,0.1548385,0.1547408,0.1546441,0.1545484,0.1544536,0.1543597,0.1542667,0.1541745,0.1540833,0.1539929,0.1539034,0.1538149,0.1537275,0.1536411,0.1535557,0.1534714,0.1533884,0.1533068,0.1532267,0.1531481,0.1530713,0.1529962,0.1529229,0.1528513,0.1527813,0.1527129,0.1526457,0.1525797,0.1525146,0.1524506,0.1523877,0.1523259,0.1522653,0.1522058,0.1521475,0.1520904,0.1520342,0.1519789,0.1519243,0.1518704,0.151817,0.1517638,0.1517107,0.1516577,0.1516048,0.151552,0.1514994,0.151447,0.1513947,0.1513426,0.1512906,0.1512385,0.1511862,0.1511336,0.151081,0.151028,0.1509747,0.1509209,0.1508666,0.1508115,0.1507556,0.1506988,0.1506411,0.1505825,0.1505231,0.1504629,0.150402,0.1503402,0.1502776,0.1502141,0.1501499,0.1500851,0.1500197,0.1499541,0.1498882,0.1498224,0.1497569,0.1496917,0.1496267,0.1495623,0.1494983,0.1494348,0.1493719,0.1493094,0.1492476,0.1491864,0.1491258,0.1490659,0.1490064,0.1489475,0.1488892,0.1488314,0.1487743,0.1487183,0.1486635,0.1486101,0.1485582,0.1485077,0.1484588,0.1484114,0.1483655,0.1483211,0.148278,0.1482365,0.1481963,0.1481575,0.14812,0.1480838,0.1480489,0.1480151,0.1479825,0.1479512,0.1479215,0.1478934,0.1478671,0.1478427,0.1478204,0.1478001,0.1477818,0.1477658,0.1477519,0.1477402,0.1477307,0.1477235,0.1477184,0.1477153,0.1477143,0.1477151,0.1477177,0.1477219,0.1477279,0.1477355,0.147745,0.1477565,0.14777,0.1477858,0.1478039,0.1478243,0.147847,0.1478721,0.1478996,0.1479293,0.1479613,0.1479956,0.1480323,0.1480713,0.1481129,0.1481569,0.1482037,0.1482531,0.1483051,0.1483601,0.1484182,0.1484794,0.1485441,0.1486124,0.1486843,0.14876,0.1488394,0.1489224,0.1490091,0.1490996,0.1491938,0.149292,0.1493942,0.1495002,0.14961,0.1497234,0.1498404,0.1499607,0.1500843,0.1502113,0.1503417,0.1504757,0.1506136,0.1507551,0.1509004,0.1510494,0.1512023,0.151359,0.1515195,0.1516839,0.1518523,0.1520247,0.1522013,0.1523822,0.1525672,0.1527563,0.1529493,0.1531461,0.1533466,0.1535506,0.1537582,0.1539692,0.1541836,0.1544011,0.1546219,0.1548456,0.1550722,0.1553013,0.1555329,0.1557668,0.1560028,0.1562409,0.156481,0.1567231,0.156967,0.1572126,0.1574599,0.1577087,0.1579591,0.1582108,0.1584637,0.1587178,0.1589728,0.1592288,0.1594858,0.1597438,0.1600028,0.1602627,0.1605236,0.1607856,0.1610483,0.1613118,0.1615759,0.1618403,0.1621049,0.1623693,0.1626334,0.1628968,0.1631591,0.1634199,0.163679,0.1639359,0.1641904,0.1644422,0.1646913,0.1649373,0.1651803,0.1654199,0.165656,0.1658886,0.1661174,0.1663422,0.1665629,0.1667795,0.1669921,0.1672008,0.1674056,0.1676068,0.1678046,0.1679993,0.1681909,0.1683798,0.1685662,0.1687505,0.1689332,0.1691149,0.1692963,0.1694782,0.1696615,0.1698471,0.170036,0.1702292,0.1704276,0.1706323,0.170844,0.1710638,0.1712923,0.1715302,0.1717783,0.172037,0.1723069,0.1725885,0.1728821,0.1731881,0.1735067,0.1738381,0.1741825,0.1745399,0.1749102,0.1752936,0.17569,0.1760994,0.1765219,0.1769576,0.1774067,0.1778692,0.1783456,0.1788359,0.1793404,0.1798593,0.1803926,0.1809405,0.1815031,0.1820803,0.1826722,0.1832788,0.1839003,0.1845369,0.1851889,0.1858564,0.1865398,0.1872394,0.1879552,0.1886875,0.189436,0.1902007,0.1909814,0.1917778,0.1925897,0.1934169,0.1942593,0.1951167,0.1959891,0.1968761,0.1977775,0.1986928,0.1996218,0.2005637,0.2015181,0.2024842,0.2034615,0.2044493,0.2054468,0.2064535,0.2074686,0.2084913,0.2095209,0.2105567,0.2115981,0.2126444,0.2136949,0.2147493,0.2158068,0.216867,0.2179292,0.218993,0.2200578,0.221123,0.222188,0.223252,0.2243144,0.2253745,0.2264314,0.2274845,0.2285332,0.2295766,0.2306142,0.2316454,0.2326697,0.2336863,0.2346946,0.2356937,0.2366833,0.2376627,0.238631,0.2395879,0.2405327,0.2414649,0.242384,0.2432895,0.244181,0.2450582,0.2459207,0.246768,0.2475998,0.2484157,0.2492154,0.2499986,0.2507651,0.2515147,0.2522472,0.2529627,0.253661,0.2543421,0.255006,0.2556527,0.2562822,0.2568947,0.2574903,0.2580692,0.2586318,0.2591782,0.259709,0.2602246,0.2607253,0.2612114,0.2616831,0.2621408,0.2625849,0.2630158,0.2634338,0.2638393,0.2642328,0.2646145,0.2649847,0.2653435,0.2656913,0.2660282,0.2663545,0.2666705,0.2669765,0.2672731,0.2675605,0.2678393,0.2681099,0.2683727,0.2686279,0.268876,0.2691175,0.2693526,0.2695817,0.2698049,0.2700224,0.2702343,0.270441,0.2706428,0.2708396,0.2710319,0.2712196,0.271403,0.2715821,0.271757,0.2719277,0.2720942,0.2722561,0.2724136,0.2725665,0.2727149,0.2728587,0.2729978,0.2731321,0.2732616,0.2733862,0.273506,0.2736205,0.2737296,0.2738332,0.2739312,0.2740234,0.2741095,0.2741895,0.2742632,0.2743305,0.2743915,0.274446,0.274494,0.2745355,0.2745704,0.2745986,0.2746203,0.2746354,0.2746442,0.2746468,0.2746433,0.274634,0.2746191,0.2745987,0.274573,0.2745421,0.2745061,0.274465,0.274419,0.2743682,0.2743128,0.274253,0.2741888,0.2741206,0.2740485,0.2739727,0.2738934,0.2738106,0.2737245,0.2736352,0.2735429,0.2734479,0.2733503,0.2732501,0.2731477,0.2730429,0.272936,0.2728268,0.2727154,0.2726018,0.2724859,0.272368,0.272248,0.2721259,0.2720018,0.2718756,0.2717474,0.2716171,0.2714844,0.2713494,0.2712123,0.2710733,0.2709324,0.2707899,0.2706456,0.2704999,0.2703526,0.2702037,0.2700531,0.2699007,0.2697463,0.26959,0.2694317,0.2692713,0.269109,0.2689444,0.2687778,0.268609,0.2684378,0.2682644,0.2680885,0.2679102,0.2677294,0.2675464,0.2673612,0.2671739,0.2669849,0.2667942,0.266602,0.2664087,0.2662142,0.2660189,0.2658227,0.2656255,0.2654274,0.2652283,0.2650282,0.2648271,0.2646248,0.2644213,0.2642166,0.2640107,0.2638039,0.2635963,0.2633882,0.2631799,0.2629716,0.2627637,0.2625563,0.2623497,0.2621439,0.2619392,0.2617355,0.2615331,0.2613322,0.2611327,0.2609351,0.2607394,0.2605461,0.2603551,0.2601664,0.2599802,0.2597967,0.2596157,0.2594373,0.2592615,0.2590882,0.2589175,0.2587493,0.2585838,0.2584209,0.2582609,0.2581039,0.25795,0.2577995,0.2576525,0.257509,0.2573692,0.257233,0.2571003,0.2569711,0.2568451,0.2567223,0.2566025,0.2564855,0.2563711,0.2562594,0.2561503,0.2560436,0.2559393,0.2558373,0.2557375,0.2556398,0.2555437,0.2554493,0.2553563,0.2552644,0.2551737,0.2550839,0.254995,0.254907,0.2548198,0.2547334,0.2546479,0.2545633,0.2544796,0.2543967,0.2543149,0.254234,0.2541542,0.2540754,0.2539975,0.2539205,0.2538442,0.2537687,0.2536939,0.2536197,0.2535462,0.2534734,0.2534015,0.2533302,0.2532599,0.2531905,0.2531221,0.2530548,0.2529887,0.252924,0.2528607,0.2527989,0.2527386,0.25268,0.2526231,0.252568,0.2525144,0.2524624,0.2524117,0.2523623,0.2523142,0.2522672,0.2522215,0.2521771,0.2521339,0.2520921,0.2520514,0.2520116,0.2519724,0.2519335,0.2518944,0.2518549,0.2518146,0.2517734,0.2517315,0.2516889,0.2516459,0.2516025,0.2515589,0.2515151,0.2514708,0.2514261,0.2513806,0.251334,0.2512857,0.2512357,0.251184,0.2511303,0.2510748,0.2510174,0.2509581,0.2508966,0.2508332,0.2507676,0.2506996,0.2506289,0.2505555,0.250479,0.2503995,0.2503167,0.2502307,0.2501411,0.2500477,0.2499507,0.2498497,0.2497448,0.2496359,0.249523,0.2494058,0.2492845,0.2491587,0.2490283,0.2488931,0.2487532,0.2486086,0.2484595,0.2483063,0.2481492,0.2479887,0.247825,0.2476582,0.2474883,0.2473154,0.2471396,0.2469611,0.2467801,0.2465965,0.2464105,0.2462225,0.2460325,0.2458405,0.2456467,0.2454512,0.2452539,0.2450548,0.244854,0.2446514,0.2444473,0.2442416,0.2440348,0.2438271,0.2436187,0.2434098,0.2432005,0.2429911,0.2427817,0.2425725,0.2423637,0.2421555,0.241948,0.2417415,0.2415362,0.2413322,0.2411298,0.240929,0.2407299,0.2405322,0.2403358,0.2401405,0.2399461,0.2397524,0.2395592,0.2393662,0.2391729,0.2389793,0.2387853,0.2385906,0.2383953,0.2381996,0.2380032,0.2378063,0.2376088,0.2374107,0.2372119,0.2370126,0.2368127,0.2366121,0.2364108,0.2362093,0.2360078,0.2358069,0.2356071,0.2354085,0.2352116,0.2350164,0.2348231,0.234632,0.2344433,0.2342568,0.2340728,0.2338913,0.2337123,0.2335359,0.2333621,0.2331904,0.2330207,0.2328528,0.2326865,0.2325218,0.2323587,0.2321973,0.2320378,0.2318803,0.2317251,0.2315721,0.2314212,0.2312726,0.2311263,0.2309824,0.230841,0.2307022,0.2305662,0.2304332,0.2303031,0.2301764,0.2300533,0.2299339,0.2298186,0.2297073,0.2295999,0.2294966,0.2293971,0.2293015,0.2292098,0.2291218,0.2290376,0.2289575,0.2288815,0.2288098,0.2287424,0.2286796,0.2286214,0.2285681,0.2285199,0.2284771,0.2284397,0.2284081,0.2283825,0.2283628,0.2283494,0.2283423,0.2283418,0.2283479,0.2283607,0.2283806,0.2284075,0.2284419,0.2284838,0.2285331,0.2285898,0.2286538,0.228725,0.228803,0.2288878,0.2289788,0.2290757,0.2291781,0.2292857,0.229398,0.2295149,0.2296361,0.2297613,0.2298906,0.2300237,0.2301608,0.2303017,0.2304464,0.2305949,0.2307472,0.2309036,0.2310641,0.2312289,0.2313982,0.2315721,0.2317507,0.2319341,0.2321224,0.2323156,0.2325138,0.2327171,0.2329256,0.2331394,0.2333586,0.2335832,0.2338132,0.2340486,0.2342895,0.2345356,0.234787,0.2350435,0.2353049,0.2355711,0.235842,0.2361175,0.2363974,0.2366819,0.2369709,0.2372645,0.2375629,0.237866,0.2381737,0.2384861,0.2388029,0.2391237,0.2394482,0.2397759,0.2401064,0.2404391,0.2407738,0.2411099,0.2414469,0.2417842,0.2421211,0.242457,0.2427912,0.2431231,0.243452,0.2437774,0.244099,0.2444162,0.244729,0.2450369,0.24534,0.2456383,0.2459319,0.2462207,0.246505,0.2467847,0.2470601,0.2473312,0.2475982,0.2478609,0.2481195,0.248374,0.2486242,0.2488699,0.249111,0.2493477,0.2495798,0.2498073,0.2500304,0.250249,0.2504632,0.2506732,0.2508791,0.2510808,0.2512787,0.2514729,0.2516638,0.2518516,0.252037,0.2522204,0.2524024,0.2525837,0.2527649,0.252947,0.2531303,0.2533155,0.2535027,0.2536922,0.2538839,0.2540776,0.2542731,0.2544699,0.2546677,0.2548661,0.2550646,0.2552627,0.2554598,0.2556553,0.2558484,0.2560385,0.2562247,0.2564066,0.2565837,0.2567555,0.2569218,0.2570824,0.2572371,0.2573856,0.2575277,0.2576632,0.2577918,0.2579131,0.2580268,0.2581327,0.2582304,0.2583193,0.2583994,0.25847,0.2585309,0.2585818,0.2586222,0.2586518,0.2586704,0.2586778,0.2586739,0.2586589,0.258633,0.2585969,0.2585512,0.2584968,0.2584345,0.2583657,0.2582915,0.2582129,0.2581313,0.2580482,0.2579649,0.257883,0.2578039,0.2577288,0.2576587,0.2575947,0.2575374,0.2574871,0.2574443,0.2574088,0.2573804,0.257359,0.257344,0.257335,0.2573316,0.2573333,0.2573399,0.257351,0.2573662,0.2573849,0.2574068,0.2574311,0.2574576,0.2574857,0.2575154,0.2575465,0.2575791,0.2576131,0.2576486,0.2576858,0.2577245,0.2577649,0.2578067,0.2578498,0.2578941,0.2579396,0.2579862,0.2580342,0.2580831,0.2581331,0.2581841,0.2582359,0.2582883,0.258341,0.2583938,0.2584462,0.2584979,0.2585482,0.2585967,0.2586426,0.2586855,0.2587249,0.2587602,0.2587906,0.2588158,0.2588352,0.2588483,0.2588548,0.2588543,0.2588467,0.2588321,0.2588105,0.2587823,0.2587474,0.2587062,0.2586592,0.258607,0.2585502,0.2584894,0.2584254,0.2583587,0.25829,0.2582197,0.2581483,0.258076,0.2580031,0.25793,0.2578568,0.2577836,0.2577105,0.2576376,0.2575649,0.2574924,0.2574203,0.2573486,0.2572777,0.2572079,0.2571394,0.2570723,0.2570067,0.2569424,0.2568792,0.2568166,0.2567544,0.2566924,0.2566302,0.2565676,0.2565045,0.2564409,0.2563766,0.2563116,0.256246,0.2561796,0.2561125,0.2560446,0.2559759,0.2559061,0.2558353,0.2557633,0.2556903,0.2556163,0.2555412,0.2554649,0.2553875,0.255309,0.2552291,0.2551477,0.2550648,0.2549802,0.254894,0.2548062,0.2547169,0.2546263,0.2545345,0.2544417,0.2543479,0.2542533,0.254158,0.254062,0.2539656,0.2538691,0.2537727,0.2536768,0.2535814,0.2534866,0.2533926,0.2532993,0.2532066,0.2531146,0.2530233,0.2529327,0.2528429,0.2527539,0.2526659,0.2525788,0.2524927,0.2524077,0.2523239,0.2522412,0.2521597,0.2520792,0.2519995,0.2519205,0.2518418,0.2517632,0.2516844,0.2516052,0.2515254,0.2514451,0.2513641,0.2512823,0.2511996,0.251116,0.2510314,0.2509455,0.2508584,0.2507699,0.25068,0.2505887,0.2504961,0.2504021,0.2503068,0.2502101,0.2501123,0.2500132,0.2499128,0.2498111,0.2497079,0.249603,0.2494964,0.2493876,0.2492767,0.2491635,0.249048,0.2489302,0.2488103,0.2486883,0.2485641,0.2484377,0.2483092,0.2481783,0.2480453,0.2479102,0.2477731,0.2476345,0.2474945,0.2473536,0.2472122,0.2470704,0.2469285,0.2467868,0.2466453,0.2465044,0.2463641,0.2462246,0.2460862,0.245949,0.2458134,0.2456795,0.2455476,0.245418,0.2452909,0.2451666,0.2450453,0.2449269,0.2448116,0.2446994,0.2445904,0.2444849,0.2443832,0.2442858,0.2441932,0.2441057,0.244024,0.2439483,0.2438789,0.2438158,0.2437593,0.2437092,0.2436656,0.2436288,0.2435989,0.2435762,0.2435609,0.2435532,0.2435535,0.2435617,0.2435779,0.2436022,0.2436344,0.2436747,0.243723,0.2437793,0.2438436,0.2439163,0.2439974,0.2440872,0.244186,0.2442938,0.2444106,0.2445366,0.2446715,0.2448155,0.2449684,0.2451305,0.2453021,0.2454837,0.2456758,0.2458791,0.2460945,0.2463228,0.2465652,0.2468228,0.247097,0.2473892,0.2477008,0.2480332,0.2483876,0.2487652,0.2491668,0.2495932,0.2500449,0.2505222,0.2510255,0.2515549,0.2521105,0.2526921,0.2532999,0.2539337,0.2545934,0.2552792,0.2559914,0.2567303,0.2574965,0.2582911,0.2591148,0.259969,0.260855,0.2617742,0.2627283,0.2637188,0.2647476,0.2658162,0.2669266,0.2680806,0.2692802,0.2705274,0.2718242,0.2731724,0.2745739,0.2760302,0.2775427,0.2791124,0.2807401,0.2824263,0.2841709,0.2859738,0.2878344,0.2897515,0.2917236,0.2937489,0.2958253,0.2979502,0.3001211,0.3023354,0.3045905,0.306884,0.3092138,0.3115779,0.3139749,0.3164032,0.3188618,0.3213494,0.3238649,0.3264067,0.3289731,0.331562,0.334171,0.3367971,0.3394369,0.3420869,0.3447429,0.3474003,0.3500545,0.3527005,0.3553334,0.3579484,0.3605408,0.3631064,0.3656414,0.3681426,0.3706072,0.3730328,0.3754176,0.3777603,0.3800596,0.3823149,0.3845259,0.3866924,0.3888144,0.3908921,0.3929253,0.394914,0.3968579,0.3987566,0.4006099,0.4024171,0.4041781,0.4058925,0.4075602,0.4091811,0.4107549,0.4122818,0.4137616,0.4151945,0.4165803,0.4179191,0.419211,0.4204558,0.4216537,0.4228045,0.4239081,0.4249642,0.4259727,0.4269334,0.4278461,0.4287108,0.4295279,0.4302975,0.4310202,0.4316966,0.4323274,0.4329135,0.4334556,0.4339547,0.4344114,0.4348268,0.4352018,0.4355372,0.4358337,0.4360921,0.4363129,0.4364966,0.4366434,0.4367537,0.4368281,0.4368669,0.4368709,0.4368409,0.4367777,0.4366824,0.4365558,0.4363991,0.4362133,0.4359993,0.4357582,0.4354909,0.4351983,0.4348814,0.434541,0.434178,0.4337935,0.4333883,0.4329634,0.4325197,0.4320579,0.4315789,0.4310834,0.4305723,0.4300465,0.4295069,0.4289546,0.4283905,0.4278153,0.4272299,0.4266346,0.4260302,0.4254171,0.4247958,0.4241668,0.4235305,0.4228875,0.4222383,0.4215831,0.4209224,0.4202567,0.4195862,0.4189114,0.4182326,0.4175503,0.416865,0.4161772,0.4154875,0.4147966,0.4141052,0.4134138,0.4127229,0.4120328,0.4113436,0.4106556,0.4099689,0.4092835,0.4085994,0.4079166,0.407235,0.4065545,0.405875,0.4051965,0.4045191,0.4038426,0.4031673,0.4024933,0.4018207,0.4011495,0.40048,0.399812,0.3991457,0.3984809,0.3978175,0.3971556,0.3964949,0.3958353,0.3951768,0.3945193,0.3938628,0.3932072,0.3925528,0.3918998,0.3912486,0.3905993,0.389952,0.3893068,0.3886634,0.3880217,0.3873815,0.3867425,0.386105,0.3854689,0.3848346,0.3842022,0.3835719,0.382944,0.3823185,0.3816957,0.3810757,0.3804588,0.3798452,0.3792352,0.3786291,0.3780271,0.3774295,0.3768364,0.3762478,0.3756638,0.3750845,0.3745099,0.3739405,0.3733767,0.3728189,0.3722678,0.3717237,0.3711865,0.3706564,0.370133,0.3696162,0.3691057,0.3686017,0.3681044,0.3676139,0.3671305,0.3666544,0.3661857,0.3657244,0.3652708,0.3648253,0.3643883,0.3639601,0.3635413,0.3631323,0.3627332,0.3623444,0.361966,0.361598,0.3612407,0.3608941,0.3605583,0.3602338,0.3599207,0.3596193,0.3593299,0.3590524,0.3587871,0.3585342,0.3582937,0.3580656,0.3578501,0.357647,0.3574565,0.3572786,0.3571132,0.3569608,0.3568214,0.3566956,0.3565838,0.3564863,0.3564034,0.3563353,0.356282,0.3562434,0.3562194,0.3562098,0.3562148,0.3562345,0.3562692,0.3563191,0.3563843,0.3564651,0.3565614,0.3566733,0.356801,0.3569447,0.3571044,0.3572803,0.3574726,0.3576812,0.3579063,0.3581475,0.3584049,0.3586785,0.3589685,0.3592747,0.3595975,0.3599367,0.3602923,0.3606643,0.3610525,0.3614566,0.3618765,0.3623118,0.3627621,0.3632268,0.3637054,0.3641976,0.3647028,0.365221,0.3657522,0.3662964,0.3668537,0.3674241,0.3680074,0.3686028,0.3692099,0.3698277,0.3704555,0.3710929,0.3717397,0.3723959,0.3730618,0.3737373,0.3744223,0.3751163,0.375819,0.3765296,0.3772475,0.377972,0.3787026,0.3794386,0.3801794,0.380924,0.3816718,0.3824216,0.3831724,0.3839235,0.3846741,0.3854236,0.3861714,0.3869168,0.3876595,0.3883987,0.3891336,0.3898635,0.3905874,0.3913042,0.3920132,0.3927135,0.3934045,0.3940858,0.394757,0.395418,0.3960686,0.3967086,0.3973377,0.3979555,0.3985617,0.3991559,0.399738,0.4003077,0.4008649,0.4014098,0.4019425,0.4024635,0.4029731,0.4034722,0.4039612,0.4044406,0.4049107,0.4053715,0.4058235,0.406267,0.4067021,0.4071294,0.4075492,0.4079616,0.4083667,0.4087644,0.4091547,0.4095377,0.4099134,0.4102818,0.4106432,0.4109975,0.4113448,0.4116851,0.4120183,0.4123445,0.4126638,0.4129766,0.4132831,0.4135837,0.4138785,0.4141676,0.4144508,0.4147277,0.4149977,0.4152603,0.4155153,0.4157626,0.4160022,0.4162345,0.4164601,0.4166797,0.4168936,0.4171023,0.417306,0.4175051,0.4176998,0.4178905,0.4180772,0.4182599,0.4184389,0.418614,0.4187852,0.4189523,0.4191154,0.4192745,0.41943,0.4195826,0.4197326,0.4198807,0.4200272,0.4201722,0.4203163,0.420459,0.4206005,0.4207407,0.4208794,0.4210166,0.421152,0.4212854,0.4214162,0.4215441,0.4216692,0.4217916,0.4219112,0.4220286,0.4221437,0.4222564,0.4223664,0.422473,0.4225758,0.4226745,0.4227688,0.4228588,0.4229447,0.4230263,0.4231038,0.4231768,0.4232453,0.4233091,0.4233682,0.423423,0.4234733,0.4235188,0.4235593,0.4235942,0.4236233,0.4236463,0.4236635,0.4236751,0.4236819,0.4236841,0.4236821,0.4236761,0.4236661,0.4236515,0.4236319,0.4236071,0.423577,0.4235415,0.4235007,0.4234547,0.4234034,0.4233466,0.4232842,0.423216,0.423142,0.4230625,0.4229779,0.4228884,0.4227942,0.4226956,0.4225925,0.422485,0.422373,0.4222564,0.4221357,0.4220112,0.4218834,0.4217528,0.4216196,0.4214841,0.4213462,0.421206,0.4210633,0.4209181,0.4207704,0.4206204,0.4204682,0.4203141,0.4201583,0.420001,0.4198423,0.4196822,0.4195207,0.4193581,0.4191945,0.4190302,0.4188656,0.4187008,0.4185361,0.4183713,0.4182063,0.418041,0.4178747,0.4177074,0.4175384,0.4173676,0.4171948,0.4170195,0.4168415,0.4166604,0.4164757,0.4162868,0.4160936,0.4158956,0.4156927,0.4154854,0.4152739,0.4150589,0.4148413,0.4146217,0.4144002,0.4141767,0.4139511,0.4137229,0.4134922,0.413259,0.4130238,0.4127872,0.4125499,0.4123127,0.4120764,0.4118419,0.4116095,0.4113794,0.411152,0.4109273,0.4107049,0.4104846,0.4102661,0.4100494,0.4098343,0.409621,0.4094096,0.4092001,0.4089922,0.4087855,0.4085796,0.4083737,0.4081676,0.4079611,0.4077546,0.4075484,0.4073426,0.4071374,0.4069326,0.4067275,0.4065213,0.4063136,0.406104,0.4058923,0.4056785,0.4054626,0.4052449,0.4050252,0.4048032,0.4045781,0.4043493,0.4041159,0.4038778,0.4036349,0.4033878,0.4031372,0.4028842,0.4026297,0.4023742,0.4021181,0.4018615,0.4016041,0.4013457,0.4010862,0.4008248,0.4005613,0.4002955,0.4000272,0.3997567,0.3994847,0.3992116,0.3989379,0.3986639,0.3983893,0.3981139,0.3978375,0.3975598,0.397281,0.3970017,0.3967224,0.3964441,0.3961672,0.3958918,0.3956178,0.3953443,0.3950712,0.3947978,0.3945238,0.3942493,0.3939748,0.3937003,0.3934264,0.3931533,0.392881,0.39261,0.3923407,0.3920737,0.3918093,0.3915476,0.391289,0.3910331,0.3907799,0.3905292,0.3902806,0.3900346,0.3897916,0.389552,0.3893164,0.3890856,0.3888597,0.3886392,0.3884243,0.3882153,0.3880121,0.3878143,0.3876218,0.3874339,0.3872502,0.3870701,0.3868932,0.3867195,0.3865493,0.386383,0.3862208,0.386063,0.3859095,0.38576,0.3856142,0.3854717,0.3853322,0.3851958,0.3850626,0.3849329,0.3848071,0.3846852,0.3845676,0.3844545,0.384346,0.384242,0.3841428,0.3840489,0.3839606,0.3838782,0.3838023,0.3837337,0.3836733,0.3836221,0.3835808,0.3835498,0.3835296,0.3835201,0.3835216,0.383534,0.3835574,0.3835921,0.3836387,0.3836972,0.3837678,0.3838509,0.3839469,0.3840565,0.3841805,0.3843199,0.3844756,0.3846482,0.3848381,0.3850459,0.3852719,0.3855167,0.385781,0.3860658,0.3863713,0.3866982,0.3870468,0.3874173,0.38781,0.388225,0.3886625,0.3891222,0.3896047,0.3901097,0.390637,0.3911869,0.3917589,0.3923533,0.3929698,0.3936085,0.3942692,0.3949514,0.3956548,0.3963787,0.397122,0.3978835,0.3986622,0.3994575,0.4002686,0.4010951,0.4019366,0.4027929,0.4036639,0.4045488,0.4054468,0.4063563,0.4072758,0.4082035,0.4091374,0.410076,0.4110183,0.4119629,0.4129089,0.4138554,0.4148013,0.4157459,0.4166889,0.4176298,0.4185681,0.4195037,0.4204363,0.4213651,0.4222894,0.4232084,0.4241211,0.4250265,0.4259239,0.4268128,0.4276929,0.4285644,0.4294275,0.4302826,0.43113,0.4319704,0.4328046,0.4336333,0.434457,0.4352764,0.4360918,0.4369027,0.4377087,0.438509,0.4393028,0.4400897,0.4408692,0.441641,0.4424051,0.4431613,0.4439091,0.4446476,0.4453762,0.4460945,0.4468022,0.4474994,0.4481856,0.44886,0.4495214,0.4501679,0.4507983,0.4514118,0.4520077,0.4525862,0.4531469,0.453689,0.4542117,0.4547138,0.4551938,0.4556499,0.456081,0.4564871,0.4568687,0.4572276,0.4575661,0.4578859,0.4581888,0.4584757,0.4587472,0.4590036,0.4592451,0.4594722,0.4596854,0.4598853,0.460073,0.46025,0.460418,0.4605792,0.4607359,0.4608901,0.4610438,0.4611991,0.4613573,0.4615198,0.461688,0.4618633,0.4620471,0.4622401,0.4624427,0.4626548,0.4628763,0.4631074,0.4633487,0.4636012,0.4638664,0.464146,0.4644409,0.4647526,0.4650814,0.4654277,0.4657916,0.4661735,0.4665734,0.4669911,0.4674261,0.4678762,0.4683388,0.4688106,0.469288,0.4697684,0.47025,0.4707322,0.4712151,0.4716994,0.4721864,0.4726764,0.4731697,0.4736657,0.4741637,0.4746626,0.4751613,0.4756588,0.4761538,0.4766443,0.4771284,0.4776035,0.4780669,0.4785157,0.4789474,0.47936,0.4797514,0.4801198,0.4804633,0.4807795,0.481066,0.4813208,0.4815424,0.4817303,0.4818849,0.4820073,0.4820991,0.4821621,0.4821989,0.4822121,0.4822052,0.4821828,0.4821497,0.4821114,0.4820728,0.4820381,0.4820097,0.4819891,0.4819761,0.4819698,0.4819693,0.4819743,0.4819852,0.4820026,0.4820282,0.4820633,0.4821088,0.4821651,0.4822314,0.4823062,0.4823874,0.4824723,0.4825585,0.4826443,0.4827285,0.4828108,0.4828913,0.4829708,0.4830497,0.4831288,0.4832084,0.4832884,0.4833685,0.4834481,0.4835269,0.4836051,0.4836831,0.4837609,0.4838393,0.4839183,0.4839987,0.4840812,0.4841673,0.4842575,0.4843529,0.4844535,0.484559,0.4846686,0.4847808,0.4848949,0.4850101,0.4851258,0.4852419,0.4853586,0.485476,0.485593,0.4857085,0.4858211,0.4859295,0.4860321,0.4861276,0.486214,0.4862897,0.4863531,0.4864024,0.4864354,0.4864502,0.4864442,0.4864163,0.4863658,0.4862936,0.4862011,0.4860899,0.4859613,0.4858163,0.4856544,0.485476,0.4852814,0.4850722,0.4848515,0.4846235,0.4843921,0.4841613,0.4839343,0.4837134,0.4834999,0.4832945,0.4830975,0.482909,0.482729,0.4825579,0.4823956,0.482242,0.4820974,0.4819617,0.4818348,0.4817161,0.481605,0.4815014,0.4814047,0.4813141,0.481229,0.4811496,0.4810754,0.4810053,0.4809375,0.4808705,0.4808026,0.4807337,0.4806643,0.4805947,0.480526,0.4804599,0.4803976,0.4803394,0.4802855,0.4802358,0.4801902,0.4801487,0.4801124,0.4800819,0.4800582,0.4800413,0.4800309,0.4800271,0.4800295,0.4800382,0.4800533,0.4800754,0.4801048,0.4801421,0.4801874,0.4802401,0.4802998,0.4803662,0.4804384,0.4805159,0.4805972,0.4806809,0.4807662,0.4808526,0.4809396,0.4810272,0.4811151,0.4812028,0.4812897,0.4813755,0.4814607,0.4815458,0.4816324,0.4817216,0.4818144,0.4819114,0.4820131,0.4821197,0.4822311,0.4823474,0.482469,0.4825966,0.4827305,0.482871,0.4830185,0.4831735,0.4833362,0.4835068,0.4836847,0.4838691,0.48406,0.484258,0.4844643,0.4846807,0.4849084,0.4851489,0.4854025,0.4856687,0.4859472,0.4862372,0.4865382,0.4868499,0.4871708,0.4875003,0.4878366,0.4881784,0.4885242,0.4888726,0.4892226,0.4895746,0.4899292,0.4902874,0.4906513,0.4910226,0.4914035,0.4917954,0.4921983,0.4926123,0.4930359,0.4934676,0.493906,0.4943505,0.4948007,0.4952568,0.4957204,0.4961922,0.4966733,0.4971638,0.4976636,0.4981717,0.4986879,0.4992114,0.4997434,0.5002844,0.5008352,0.5013962,0.5019678,0.5025498,0.5031431,0.5037473,0.5043617,0.5049855,0.5056186,0.5062614,0.5069149,0.507579,0.5082542,0.5089397,0.5096342,0.510335,0.5110407,0.5117498,0.5124626,0.5131799,0.5139033,0.5146342,0.5153735,0.5161207,0.5168747,0.5176346,0.5184,0.5191712,0.51995,0.5207366,0.5215315,0.5223343,0.5231436,0.5239582,0.524777,0.5255992,0.5264242,0.527252,0.5280833,0.5289187,0.5297589,0.5306035,0.5314516,0.5323021,0.5331546,0.5340089,0.5348659,0.5357263,0.5365905,0.5374585,0.5383293,0.5392014,0.5400741,0.5409464,0.5418181,0.5426898,0.5435614,0.5444345,0.5453113,0.5461941,0.5470849,0.5479845,0.5488932,0.5498099,0.550733,0.5516605,0.5525906,0.5535221,0.5544536,0.5553843,0.5563135,0.5572402,0.5581645,0.5590855,0.560002,0.5609125,0.5618162,0.562712,0.5636001,0.5644819,0.5653583,0.5662314,0.5671023,0.5679719,0.5688392,0.5697026,0.5705593,0.5714059,0.5722396,0.5730574,0.5738583,0.5746419,0.5754097,0.5761635,0.5769065,0.5776418,0.578372,0.5790983,0.5798212,0.58054,0.5812526,0.5819566,0.5826501,0.5833316,0.5840012,0.5846599,0.5853102,0.5859536,0.586592,0.5872258,0.5878528,0.5884699,0.5890731,0.5896592,0.5902266,0.5907754,0.5913073,0.5918255,0.5923325,0.5928313,0.5933234,0.5938091,0.5942875,0.5947565,0.5952133,0.5956552,0.5960804,0.5964885,0.5968798,0.5972542,0.5976115,0.5979512,0.5982721,0.5985723,0.5988507,0.5991067,0.59934,0.5995514,0.5997419,0.5999121,0.6000637,0.6001974,0.6003135,0.6004122,0.6004936,0.6005571,0.6006033,0.6006326,0.6006451,0.6006414,0.6006221,0.6005871,0.600536,0.6004688,0.6003802
